time_s,crankLeft,CrankRight,R BICEPS FEMORIS: EMG 1,L BICEPS FEMORIS: EMG 2,R VASTUS MEDIALIS: EMG 3,L VASTUS MEDIALIS: EMG 4,R RECTUS FEMORIS: EMG 5,L RECTUS FEMORIS: EMG 6,R VASTUS LATERALIS: EMG 7,L VASTUS LATERALIS: EMG 8,R TIBIALIS ANTERIOR: EMG 10,L TIBIALIS ANTERIOR: EMG 11,R GASTROCNEMIUS: EMG 12,L GASTROCNEMIUS: EMG 13,R SOLEUS: EMG 14,L SOLEUS: EMG 16
71.32942967501003,-2.3090912895247806,0.0737318636110568,6.018492254920531e-06,4.602343700752823e-06,2.571798788941405e-06,3.985178263657103e-05,2.403309692012739e-06,1.4260784841191342e-05,3.075413505196959e-06,4.141618774550322e-05,2.9711622232793272e-06,3.2228221971343287e-06,6.121859022370705e-06,2.4215455823574023e-05,5.048101870138183e-06,2.1057256784838224e-05
71.43788065004628,-2.308899481466539,0.0739141259674394,1.2997354612533774e-05,7.332202261585955e-06,5.63419052278732e-06,9.004056922968783e-05,2.6133918427150285e-06,2.3959673197512227e-05,6.565469721759991e-06,7.673268232709434e-05,3.936961869139671e-06,3.721357909676555e-06,1.0899405518108476e-05,2.2072324036716182e-05,9.134964964319104e-06,1.8873128148349364e-05
71.51830630004406,-2.3093528458550026,0.0635504590063611,8.539563893568926e-06,3.993325495631747e-06,7.166316979366768e-06,4.4759736690671495e-05,2.4252998220112303e-06,1.2343401998160912e-05,1.971032695521718e-05,9.185672653202848e-05,3.584496254999401e-06,3.543162086802156e-06,8.374816519691732e-06,1.407276085709836e-05,5.966702963397928e-06,1.4132232267218155e-05
71.64263658749405,-2.2981612983307786,0.05721064107768245,3.7795184827309673e-06,3.025169447239559e-06,1.2072419180168057e-05,1.7240034245676547e-05,4.480854541002111e-06,7.144376366393861e-06,2.1825423600624282e-05,3.3990027066927914e-05,3.7746287004674688e-06,3.256943899819372e-06,2.391682547020687e-05,2.170965404096984e-05,4.512240467319415e-06,1.7334353710204633e-05
71.75782918755431,-2.121367594678734,0.1122174111549894,1.9178707603173317e-06,3.4590170300167183e-06,3.476326753360288e-06,2.925330973103923e-05,2.615174057552144e-06,9.011948243656702e-06,7.602755636901239e-06,5.184607731747079e-05,5.186214490412616e-06,3.5996062925076368e-06,4.649265780342889e-06,2.9667767322242477e-05,4.321169206864578e-06,2.1183428633928813e-05
71.8307635000092,1.0694297511696695,2.6555988790788767,2.1641321113572737e-06,3.5122425688303916e-06,1.1218580052532619e-05,3.4749725315364765e-05,6.83903163411661e-06,9.978833572924741e-06,1.5450873101590507e-05,4.7132181649347076e-05,4.255441968399908e-06,3.886857376206518e-06,4.322355131485194e-06,3.0211978653993828e-05,4.3673903014036715e-06,2.5928073489804275e-05
71.9270492499927,0.6670493022974942,3.018228687803707,2.159184651738756e-06,3.462598222951931e-06,1.256141526242023e-05,2.389997101723672e-05,3.559041239208207e-06,6.586146925042524e-06,8.738164530957192e-06,2.295191010861864e-05,3.5134756369752623e-06,3.313023375946704e-06,3.7252388315420527e-06,3.4737258072404595e-05,3.2121781424949705e-06,2.440474554624742e-05
72.06002255319618,1.453180258043902,3.6430308075655455,1.9565195020769627e-06,3.990534949785081e-06,2.0205454565447312e-06,2.5792064848424004e-05,1.3626348868666331e-05,5.537173275361363e-06,2.2234614894077103e-06,3.67662501131439e-05,4.189410137896441e-06,3.494275325043653e-06,3.2297346989351198e-06,3.63921461601212e-05,3.6497959056556794e-06,3.442240415948943e-05
72.17743150005117,5.2338281502801385,5.207039377424356,1.7934721611811636e-06,5.567431965380118e-06,2.5002091150873557e-06,6.779616350730537e-06,1.6918495644468193e-05,3.87162341912401e-06,2.26755486021783e-06,8.504332317783956e-06,5.984880759166979e-06,3.418421459686518e-06,3.815791883612458e-06,3.640979998837448e-05,2.8592899061672898e-06,2.701222747726448e-05
72.22613089997321,7.388383316911584,4.364381847168777,2.0127252769097337e-06,5.892367988395188e-06,2.7283651038005018e-06,3.0037860748217287e-06,2.2822532962364755e-05,3.21424080446785e-06,2.757207596302181e-06,6.947735078076055e-06,1.4369142657228887e-05,3.301525020704485e-06,3.7271208949528473e-06,3.4648614466391334e-05,2.7463889953371654e-06,2.417385427867197e-05
72.32379362510983,9.175852766092536,3.697667205165305,2.4251777625649677e-06,4.009348129291031e-06,2.7523039253381364e-06,8.4965960877576e-06,2.7733244697646884e-05,2.5875726981690973e-06,3.699443510559077e-06,6.574245457622448e-06,1.2940218307687093e-05,3.583521715322828e-06,3.842658085661379e-06,3.211121190941651e-05,2.860439673029871e-06,2.468778782750545e-05
72.43896010005847,13.47303837216173,1.7022546781248833,3.955095146247988e-06,1.738545593790089e-05,2.8373225675638774e-05,3.870389621012661e-06,6.619566144333904e-05,2.159026469008865e-06,4.359021173529763e-05,5.0417400656002816e-06,5.080860735243305e-05,2.930532402383887e-06,7.979478913160249e-06,1.563398051666707e-05,8.412660007173872e-06,1.2616266185931388e-05
72.56119890004629,17.39003602310075,-1.7999221060482786,4.422838955691931e-06,1.3025775672686009e-05,6.590053330528045e-05,2.2705047505956905e-06,5.811118717042658e-05,2.0526855221384353e-06,4.8823917029028834e-05,4.03370785061399e-06,2.004030149769553e-05,3.0242489064233123e-06,4.266224232374662e-06,1.4195613364307464e-05,4.756907174567631e-06,9.105158483807626e-06
72.67224080004962,22.803329780399636,-4.901549706587422,4.585326761067544e-06,1.0649137840213689e-05,9.763622333767863e-05,2.4925450958564444e-06,4.333845428984764e-05,1.8254554926322597e-06,8.609389957652273e-05,3.742134365549047e-06,8.71558677231098e-06,2.517845966880324e-06,1.7512361573978014e-05,7.75167776997836e-06,7.9668777216959e-06,8.9101734687639e-06
72.72353590000421,24.55567187182978,-9.9986202948845,5.161541362913226e-06,9.595103298038962e-06,9.461444707616328e-05,2.4084235558348303e-06,2.9024639423784248e-05,1.7175314090226397e-06,6.303275284040628e-05,3.6562728666020813e-06,4.024627992805833e-06,2.4668088206451253e-06,1.76062412151174e-05,8.36447418380887e-06,8.024758970217701e-06,8.962347123444963e-06
72.82732742815278,22.345083994369794,-15.85044174429252,3.1407390849229205e-06,3.919560369497957e-06,3.092653637818538e-05,1.9385091119475057e-06,2.2711810370763078e-05,2.0160744953049827e-06,3.781329634422275e-05,4.255914698717679e-06,5.241923927208709e-06,2.823481854614402e-06,1.1850955838282852e-05,8.103483227770298e-06,9.526796103497176e-06,7.83808785225075e-06
72.95778820005944,23.40986152039398,-16.032929707397166,2.6261423362867566e-06,2.8463702091109454e-06,3.745850501376376e-05,1.9401593012675965e-06,1.2229086905751524e-05,1.8011208380482432e-06,4.6215193679177274e-05,4.240267263129166e-06,4.2144474827129475e-06,2.970955320920685e-06,1.648601641150947e-05,9.255935316010137e-06,8.573171689521586e-06,7.774448111005918e-06
73.08428369223839,17.772504419959777,-14.543445363821967,3.690108691676819e-06,1.7930095271878022e-06,3.4034832913302016e-05,1.9180450253028586e-06,1.2234207156558275e-05,3.0889975656219724e-06,5.257964083546746e-05,4.526571286586871e-06,4.140606585792474e-06,2.842392190300007e-06,2.5806128225487025e-05,7.167700976688737e-06,2.1757971299525424e-05,7.097298540209425e-06
73.12318310001865,10.33246175276308,-8.077033864204054,1.1052434980119578e-05,2.06542198117042e-06,2.424314837705029e-05,2.066018007229212e-06,1.024963598955924e-05,3.743171706177122e-06,5.065323842178095e-05,4.686839111452002e-06,4.547453722074127e-06,2.8681390829815064e-06,2.530990296027088e-05,6.412949773191445e-06,2.2119219073163323e-05,7.497001264104494e-06
73.23514830786735,6.576946626335379,-1.6556285684963106,1.3227790746583977e-05,2.67928450893412e-06,2.4092818855258806e-05,3.155826950695687e-06,6.353660480220884e-06,7.517229685992358e-06,4.079866395855262e-05,4.695762771593883e-06,4.860056585404422e-06,3.7830327352406292e-06,2.8565429373231494e-05,5.777537241828101e-06,1.7351108725406723e-05,6.321326780053423e-06
73.37223560002167,2.713426701612872,4.252476691132041,1.891207761561937e-05,2.548996149849042e-06,1.4266936460508871e-05,3.331736095639048e-06,4.811868182845602e-06,1.045139146145217e-05,2.5223680926271557e-05,5.148656166450609e-06,4.593517519649398e-06,4.534744578013765e-06,2.769976845300757e-05,5.547773504635024e-06,2.1030730130069275e-05,6.00878813778117e-06
73.43864710011985,-0.1265523208245476,9.50164173163274,1.683583036249956e-05,2.596013986495736e-06,1.3404196727622556e-05,7.867533693267657e-06,4.025402767522215e-06,1.152337178921464e-05,2.224546087977357e-05,8.63770613178677e-06,6.095667934025368e-06,6.294915780475706e-06,2.8354973383517326e-05,7.265759513898705e-06,2.804705799142179e-05,6.247147742533202e-06
73.53014302509837,-2.548883029461379,11.596385539665375,2.107286953632881e-05,4.0364072613003596e-06,2.0246373799952013e-06,3.868310407528415e-05,2.1299196627215045e-06,2.071208073889044e-05,5.63536083372488e-06,3.113763845278335e-05,4.0166577258794395e-06,4.070981323766169e-06,3.374847046622253e-05,5.211540603935396e-06,1.6948256940938223e-05,6.395882171652243e-06
73.66058690001955,-3.4590197697601024,15.128913754891618,2.9667867505326755e-05,7.458664218089252e-06,2.4778713296731694e-06,5.583581907358344e-05,2.2727099472271675e-06,3.6371323251268913e-05,3.0217116969581123e-06,6.302254074475272e-05,4.0497842231396976e-06,3.535691444228016e-06,1.291849990475377e-05,6.457629189606609e-06,7.362174650071594e-06,9.235273262568408e-06
73.71969440003159,-3.884707833748255,16.703162982188253,6.372617968044667e-06,5.867977788279236e-06,2.563912086989743e-06,4.020327168821806e-05,2.2381330147561886e-06,2.1138382943000647e-05,3.1201817336030188e-06,3.477197184935483e-05,4.444874750680543e-06,3.1388314414231967e-06,1.6400431513468267e-05,6.4852768509645605e-06,7.3868214799282454e-06,9.501041283791113e-06
73.8302264000522,-2.544568056127148,11.121412264534438,2.267435783281019e-06,5.213965555653068e-06,2.353615645242361e-06,2.783795276805756e-05,1.943863254120086e-06,1.7930359716590905e-05,2.01771042790884e-06,3.194133700920626e-05,3.271283051926614e-06,3.5809598123314745e-06,1.9849400717653666e-05,1.458607200226046e-05,9.458804485384598e-06,1.15379220254202e-05
73.9587280843989,0.4551162329751683,1.2488514971764384,3.500586226263991e-06,1.081106618820742e-05,3.2004776751822346e-06,8.398969909697288e-05,1.9282533039928585e-06,2.6877816880334216e-05,2.9010679994838054e-06,8.335710123763044e-05,3.987607465616228e-06,3.892474185776769e-06,7.45335127463106e-06,1.7852329413877318e-05,5.7338036816459865e-06,1.8687605357818617e-05
74.04039760003798,4.131066332870547,-3.3845294151883074,5.358708136189013e-06,9.014481781414089e-06,4.697840219120045e-06,6.955228194438621e-05,2.67940279955154e-06,2.508811633100776e-05,3.1285696415501003e-06,7.436253619628567e-05,3.935388014261085e-06,4.0760840569997526e-06,3.9166784771392055e-06,2.653028975958824e-05,3.635935626471782e-06,2.2815240776963903e-05
74.09984441404231,15.488324672230746,-8.09952018680908,5.062884944916235e-06,7.405350263016053e-06,5.5738112059836126e-06,7.064592961461096e-05,4.0999038176324085e-06,1.810196974332446e-05,3.1376833395565534e-06,7.414707485280122e-05,4.689599207349771e-06,4.491221950850233e-06,3.6946819217337104e-06,4.181357810904267e-05,3.2385355081631263e-06,2.983839153946143e-05
74.26138969999738,30.500536132980308,-7.707315873354341,3.7482587275457625e-06,7.183816509720556e-06,5.404876489269931e-06,4.8042610169001234e-05,7.958192367883318e-06,1.227310724072853e-05,2.564235497801877e-06,4.715252394690197e-05,3.007931543343738e-05,4.853050755794218e-06,8.228890870094525e-06,5.8422043926926215e-05,8.886603837336721e-06,3.907836297910693e-05
74.3312912749825,22.70997411203957,-8.071649702518004,2.579264508449719e-06,8.761751207953925e-06,5.443634279650009e-06,1.6107945589353837e-05,2.202539170203957e-05,3.6411941355669873e-06,2.670456445266826e-06,1.810251027038515e-05,3.724631995485561e-05,4.114060931347227e-06,6.1027272269818885e-06,3.62631046352141e-05,8.261406446537045e-06,2.718635280746528e-05
74.42316720314557,13.254383468221606,-7.411130746354289,2.892573466708491e-06,1.029134285507068e-05,8.271187769516179e-06,2.096920160033813e-06,3.621330205616493e-05,2.0086443168650794e-06,1.7346867766081058e-05,3.917514696132854e-06,3.7648293932574856e-05,3.740549787143239e-06,5.471699196174413e-06,2.5184952111180365e-05,6.8591281545612105e-06,1.3027644938565592e-05
74.57198395009618,3.125773557492629,-0.4227496740881227,6.017641937815349e-06,1.2697997344669617e-05,7.87630673774099e-05,2.665073789520082e-06,4.0468354266875736e-05,1.8049910965032e-06,5.144467169094157e-05,4.710587433705259e-06,1.6633421719269648e-05,2.8843227752753287e-06,5.170388902921593e-06,1.9089804681143597e-05,3.9382293401758e-06,8.758431948586794e-06
74.62920663121622,-0.20257390323487118,7.011479794627584,5.050506869079785e-06,9.902603559443107e-06,6.836399596711981e-05,1.9027506034150367e-06,3.0988231664102854e-05,2.159841329445299e-06,5.145981308464923e-05,4.749012811662406e-06,7.838227537829136e-06,3.0085961272271915e-06,1.1803631442328321e-05,1.0016569058837948e-05,6.075037450451367e-06,6.9529685025416145e-06
74.7442893999978,-4.480458526176129,11.758141780979827,5.007648317144903e-06,3.4722216335914463e-06,4.912857245467734e-05,2.213888407346007e-06,1.75568352147469e-05,2.661098286250114e-06,4.8485065756641554e-05,5.390260678963876e-06,4.92656766006245e-06,2.8735506707000375e-06,1.850765738179597e-05,8.752155023239027e-06,9.143677179135887e-06,9.540612447148684e-06
74.86340970004676,-7.422706168519474,10.967777833884641,5.021933636039246e-06,2.8338368592880393e-06,3.640835652141675e-05,2.3053863628923476e-05,1.1777688549311445e-05,6.306553160005125e-06,4.996335931064765e-05,8.41596940353187e-06,6.519348152777146e-06,2.713938880654598e-06,3.8133871045085204e-05,9.546359474309033e-06,1.866964693001351e-05,8.598064604368233e-06
74.9302449125098,-4.7887558329115425,8.82539730939296,1.3958580230615358e-05,3.2805876061993735e-06,3.2000947152833084e-05,2.422083061717604e-05,9.854877463809897e-06,8.371976435889065e-06,5.6849895254430577e-05,9.952204560861989e-06,6.661741691886411e-06,3.2030887673458905e-06,4.068127029159414e-05,9.379930961018674e-06,2.360439079869967e-05,6.906800551228184e-06
75.04159410012653,-0.752911536545726,0.9134504151610829,3.287389898885771e-05,2.7267291550318278e-06,2.7286333125847663e-05,6.792226891674876e-06,4.279995369929165e-06,1.4263805564539986e-05,3.0301456098672522e-05,1.4563047173287896e-05,5.793309970780895e-06,3.5667155884610514e-06,3.827686418671825e-05,7.844969990835767e-06,2.6763148054637277e-05,8.480928444855226e-06
75.13635793130379,4.9679590680588275,-5.923373146725673,2.4386130478703698e-05,3.2169489652369737e-06,8.92030371521742e-06,1.8200890917021152e-05,2.662953317393287e-06,1.603639607703679e-05,2.009982033541563e-05,1.6433899820202653e-05,4.884016987859952e-06,3.818188609215708e-06,2.9853038967770207e-05,4.862661482006548e-06,1.7215302652790992e-05,6.056929897978309e-06
75.21175235940609,11.913212801524375,-10.155758700616822,1.1315541262559664e-05,3.497937276140241e-06,3.107557372928191e-06,2.6652972322870525e-05,2.810442546575853e-06,1.8860927893785115e-05,5.804814149441903e-06,2.893789388410169e-05,3.891726264504843e-06,2.990725871515008e-06,2.110702389105893e-05,5.695035097504011e-06,1.7133463428123072e-05,8.882284200617532e-06
75.35987683443818,22.94170365078381,-11.245644200686986,4.562220486856324e-06,7.026032959134641e-06,2.2958022119567984e-06,5.921637953055072e-05,2.1403409261729e-06,2.209101486459145e-05,2.4750286783794907e-06,8.387503943243315e-05,4.103439141091352e-06,2.9481655888152308e-06,2.120415512014297e-05,1.019302909259913e-05,9.61020005463338e-06,1.3814769936347822e-05
75.44704172504134,28.569808282203816,-12.60452495327132,6.898110131094098e-06,7.756351495806003e-06,2.241990524372435e-06,7.024576896124906e-05,2.162127507577897e-06,2.0680320258365392e-05,2.3848824569624413e-06,7.816205933941966e-05,4.380978019546768e-06,3.714467247279588e-06,1.1985529618918331e-05,1.545899923488362e-05,8.967031690856866e-06,1.80807950230156e-05
75.54517100000521,27.07233067131942,-11.57721491271376,3.564261384924847e-06,5.032311888440736e-06,1.968789980464233e-06,5.786199523179016e-05,2.346556148189163e-06,1.873492187344843e-05,2.1960072326730505e-06,8.147056668450709e-05,3.584138209724999e-06,3.93463418709009e-06,1.3796363512094954e-05,2.7140144660503107e-05,5.565007333259901e-06,2.293323561226007e-05
75.67595602967776,14.500185806380735,-9.755475109727186,2.3601712882202594e-06,5.655786665901388e-06,2.3631907040507875e-06,6.103823145475863e-05,1.1853222402203997e-05,1.9061642570519098e-05,2.1367600190821634e-06,5.0301389565016196e-05,3.2013133191611343e-06,4.220140854938248e-06,2.9144484761289062e-06,6.050908900528841e-05,2.457616157457031e-06,3.571460013760885e-05
75.73781095002778,8.821607301012856,-7.15696343352847,2.416314111770916e-06,5.4773081939412844e-06,2.3131521957232133e-06,3.719640923878664e-05,1.3173692888267274e-05,1.909011710706836e-05,2.387656147038211e-06,3.668030552052353e-05,3.6905251632543487e-06,4.818922971871662e-06,3.036172847835624e-06,5.75092140894283e-05,2.3615651371220867e-06,3.578423125368545e-05
75.84320351720089,2.7552073502095284,-3.510413958589374,2.1112807848879596e-06,9.048329041474347e-06,2.5951234681175347e-06,3.858203844899713e-06,1.939528023929096e-05,2.2061658031765758e-06,2.3160160977907787e-06,6.2123016940256585e-06,4.002390605898412e-05,3.664166589056321e-06,8.970839886443375e-06,3.99250734704014e-05,7.089857078778345e-06,1.5090626898485007e-05
75.92924710008083,0.07816777472867525,3.6250038198807415,2.425011202779972e-06,6.269898384075633e-06,1.2899499928340055e-05,3.3971038925974964e-06,2.4037269100938368e-05,2.149094534528126e-06,1.601530237151664e-05,5.0203947334760635e-06,1.9119377297992817e-05,2.97563218825905e-06,3.789334198730195e-06,1.4919131898090768e-05,4.767921967827585e-06,7.3719210167560655e-06
76.03072680009063,-2.238593214082472,8.370555890332255,3.053002006155213e-06,7.986662244828702e-06,4.38143673458196e-05,3.009039180717798e-06,2.684270760027646e-05,2.5963136569299897e-06,5.565890970929141e-05,3.926370344909261e-06,4.806222017483349e-06,2.8794047652853287e-06,1.0432117655117588e-05,1.4285884161248943e-05,4.951980541222808e-06,7.819360429348437e-06
76.15599826723337,-3.8339769382667788,14.376291880487734,4.363286973638087e-06,3.256138279207111e-06,5.983165010716226e-05,2.2876530305967087e-06,2.679557804512976e-05,2.1780558451984426e-06,5.2297255392021846e-05,4.502268387499484e-06,4.781933396541401e-06,2.6896299906438943e-06,1.849382425431021e-05,1.249656812148669e-05,6.71270744255941e-06,8.743346792096319e-06
76.2405816000537,-3.495174583033415,11.918371309128485,4.360520705973406e-06,3.1112601337533666e-06,5.802793956334176e-05,2.514316115394404e-06,2.3426158185662532e-05,2.1728216727282455e-06,5.185842959728226e-05,3.853774720905934e-06,5.388740528385258e-06,2.815855003957087e-06,2.689091645427283e-05,1.2648129077308727e-05,1.7018919712319793e-05,8.478613311110017e-06
76.32861963438336,-0.25461422745809603,6.002339985419923,3.231601949747949e-06,2.762088463209578e-06,3.5390681673565236e-05,2.3786571281285026e-06,2.2798866909872587e-05,2.4422385597490125e-06,5.024791502939978e-05,4.507373765724379e-06,5.441663170032328e-06,2.760725926310125e-06,3.661155615905614e-05,8.366232355522802e-06,1.881140330100101e-05,9.21136995923335e-06
76.454899900069,1.2482699086967042,-1.435377529609601,1.1155092310397987e-05,2.8265826850068253e-06,2.7950640899927803e-05,2.28462240707303e-06,5.700380426837206e-06,7.367258488381684e-06,3.0078254977901134e-05,5.984902612406144e-06,5.5188886327936776e-06,2.9177473658336488e-06,3.96156631303705e-05,7.787285958210885e-06,2.5452940540432537e-05,5.288277712157923e-06
76.53506955003832,3.387659142488899,-10.744583909010268,2.011958875904266e-05,2.6522099194545648e-06,2.6744811268516577e-06,5.929972948333103e-06,2.2675395602947546e-06,1.3937439555355585e-05,3.474641466079316e-06,7.617919024507202e-06,4.842347139508478e-06,3.722150082221987e-06,3.198514483870884e-05,5.724155114700505e-06,1.729536439063484e-05,5.292084289617657e-06
76.65133397502359,13.992392467655344,-6.892205258211112,1.085266863055e-05,5.326046413592671e-06,2.985749748061387e-06,5.7336483863705086e-05,2.4442011696617086e-06,2.5175737604183917e-05,2.565467730273496e-06,5.1469626624137125e-05,4.464357088440157e-06,3.566545785302804e-06,1.6291472883789097e-05,9.220513268277011e-06,1.2086717478072382e-05,9.101980601850154e-06
76.74776820006082,21.151906642715687,-7.79022824573428,9.380806601639242e-06,5.708235828992275e-06,2.027209407532072e-06,5.159327482236402e-05,2.4003653744972586e-06,3.4412031965509295e-05,2.466247060536715e-06,4.800432670587788e-05,4.945950767808402e-06,3.8019229486092977e-06,8.225066612706548e-06,6.904149150339435e-06,5.719443509095925e-06,8.11555597344956e-06
76.8199348874623,27.82241016333941,-7.605073500804815,5.068898487291178e-06,3.890421391108627e-06,3.6828782934714414e-06,5.311433997296508e-05,2.5853127663406834e-06,2.845942543417419e-05,2.890696389939429e-06,5.030397604680542e-05,5.655013990104104e-06,3.1281905423778243e-06,8.632603147056294e-06,1.0723949545259213e-05,6.560248699382763e-06,1.3656878163433712e-05
76.95066436874913,17.491377885163303,-7.546834053336299,4.652065574719817e-06,5.34235482562231e-06,4.5021586316922955e-06,5.085524207136946e-05,3.50993003662163e-06,2.0869136220670597e-05,2.2158209153175956e-06,6.0531868711455486e-05,4.9648018553675496e-06,3.8134822108576146e-06,4.799983754513331e-06,3.476701117002748e-05,3.800949642441533e-06,3.570110141909053e-05
77.04642411874374,11.308119900079888,-6.647436204534809,5.298226035415266e-06,6.29645083004759e-06,8.117341969802533e-06,5.299667674199524e-05,5.8581312897608e-06,1.2687396394053016e-05,2.962320762850095e-06,6.595753582006522e-05,1.2656102580312824e-05,3.971521414697343e-06,4.739055366422618e-06,6.497306183173953e-05,3.4246881425818743e-06,4.551494651224334e-05
77.13182318134932,6.550250182185606,-4.987652105715107,4.001468306837412e-06,7.3598942687305545e-06,4.973221497580541e-06,3.528857863007841e-05,1.2109650443865434e-05,5.166027612483215e-06,2.453606456727394e-06,3.391531898242437e-05,2.9045653912525023e-05,4.435150084165807e-06,6.719041085352456e-06,5.175249608808847e-05,5.951714031385502e-06,2.4898372220928702e-05
77.22736910631647,1.0068195712916181,-0.6080554787811501,3.1023284139859205e-06,1.1074149355593857e-05,8.596110272586698e-06,2.3753675923486383e-06,2.4641515425014108e-05,2.2397095463702072e-06,2.1798756825830606e-05,3.7662329626804093e-06,4.085666319308358e-05,3.660666824807249e-06,6.160441701671145e-06,1.35345061402735e-05,6.653604828252979e-06,1.3067564941600752e-05
77.35085186245851,-0.596655179007902,6.227041113103065,3.5667477201085896e-06,1.2007967350613904e-05,4.999658556389495e-05,2.308723999101772e-06,2.926295817054924e-05,1.9254796421177364e-06,4.278791798232839e-05,4.898058583257823e-06,5.895651586884149e-06,3.0094966170570897e-06,6.615775012585244e-06,9.27855778491758e-06,5.259233343092308e-06,7.938241357930952e-06
77.45099836250301,-4.661507095295829,9.273142566877556,3.073996942192845e-06,3.5894789935204234e-06,4.928626435226355e-05,2.1116731293213506e-06,2.362407389371045e-05,2.0879294223660404e-06,4.941083562290162e-05,5.08678582689794e-06,4.729153660379065e-06,2.5525832711880412e-06,2.0112380363671793e-05,1.1275085705225892e-05,6.7682242954486145e-06,8.693076689631743e-06
77.52712100010831,-3.3497071170666564,8.028107643941446,3.227034801636092e-06,2.428829133729898e-06,3.850820893946957e-05,1.858650290230939e-06,1.9578661711983047e-05,1.845404827282137e-06,5.868873729345751e-05,4.585416219657877e-06,4.840019416349526e-06,3.0052613701918925e-06,3.360847305720431e-05,9.246088842537825e-06,1.3207134820733473e-05,1.264360081950428e-05
77.63255199999548,-1.7038363952044753,3.889352321715216,5.358748978078551e-06,2.870310706499955e-06,3.406887563362541e-05,2.460790338268999e-06,1.2109664982380567e-05,4.359521328004602e-06,4.193878660846535e-05,5.10118781936318e-06,4.524177961108934e-06,2.7800043817500224e-06,3.659941026319034e-05,5.883109852640741e-06,1.672943851079367e-05,6.809886096709469e-06
77.74142779374961,1.790458767179576,-3.068127995257993,2.2017485906695576e-05,2.1715232106961895e-06,1.023890500841713e-05,2.407761005497077e-06,4.4314573804756435e-06,9.559002283526715e-06,2.33361261771858e-05,4.043255278928938e-06,3.832896239063375e-06,2.669510451455e-06,3.188023334262753e-05,7.651394243513803e-06,2.0199156816799988e-05,6.6098218434042545e-06
77.8510474000359,6.1535383305609805,-8.321868125260686,2.17228631267376e-05,1.9093397307064217e-06,2.5162815299417937e-06,4.328861101500345e-06,2.162554805416841e-06,1.887356351907428e-05,2.0991858995120347e-06,5.200419390557837e-06,4.191030869843592e-06,3.0434146182788325e-06,2.2774082168504232e-05,6.485139593267728e-06,1.3819277096671711e-05,7.150979903964079e-06
77.93185583746526,13.694562960772805,-9.51183551909302,1.560643165664309e-05,4.06345574011888e-06,2.084855382321865e-06,2.4182127892334577e-05,2.040059666170257e-06,2.8396729473901044e-05,2.0257063016125266e-06,1.2898967974282042e-05,4.17045143218757e-06,3.035242485091486e-06,2.345350399333064e-05,6.77097835879086e-06,1.2731598765272563e-05,7.055884794960768e-06
78.02086930000223,19.934822086395588,-10.141433691810668,2.655207782675931e-06,5.263369857272591e-06,1.9605483206491703e-06,3.617507782417402e-05,2.0254464257623765e-06,2.905410547561704e-05,2.5139232588091173e-06,5.236043476881399e-05,4.47069014897814e-06,2.362331656980874e-06,9.738735491878803e-06,5.6607881064733744e-06,6.164435350824154e-06,9.922246673936215e-06
78.1342968000099,21.47140209571301,-9.92442399752611,2.562945843238764e-06,3.158929677695241e-06,2.4343918847837928e-06,4.2767352028691305e-05,6.97391679793372e-06,2.2088006013965174e-05,2.038666551175777e-06,5.245736768863258e-05,4.375367645607525e-06,3.079462208215961e-06,9.199153652937947e-06,1.285693031604444e-05,3.570646487701381e-06,1.559580117754746e-05
78.26620193757117,12.576490959106906,-8.987930501301161,3.7068689850750277e-06,5.131867456822731e-06,3.4629803911113114e-06,3.9801059622827746e-05,9.559496541029155e-06,1.6074795416449336e-05,2.200755477942764e-06,4.223378958398583e-05,3.3482095245659436e-06,3.98446705260703e-06,4.0611789207624905e-06,5.5114252703810576e-05,2.7133881645734836e-06,3.450421109747954e-05
78.34438380005304,7.191269179311096,-5.168992301590163,3.0621818164645148e-06,5.926596852244117e-06,5.810788042233522e-06,2.592220938661271e-05,1.514813361297522e-05,7.797756431106871e-06,2.618561153634948e-06,2.402024549856336e-05,8.905475428851383e-06,4.197252118569674e-06,3.7732555680653136e-06,4.8031574423432765e-05,3.708328060269152e-06,3.2686730674265896e-05
78.4396560000605,2.120238291501977,-2.3640246318154805,2.4650802088095967e-06,9.927948361490899e-06,4.196785436653381e-06,3.1166816454027214e-06,2.0337163422643648e-05,2.0366479820093977e-06,3.8072019880181203e-06,5.3774242631880455e-06,3.139680807448819e-05,2.6134540332920625e-06,9.490555752286407e-06,1.524535343282514e-05,8.156030045653466e-06,1.0599890859247507e-05
78.57405310007744,-0.38284921664406313,6.008624453511646,2.924522019654351e-06,1.3615429051904869e-05,4.520046207216657e-05,2.2923988881313185e-06,2.9869777919432394e-05,2.3465847517761168e-06,2.8535124874839958e-05,5.359362841120959e-06,1.6637009449196488e-05,3.0676693917253388e-06,8.499719155590723e-06,1.0989343159523945e-05,5.11776822415238e-06,7.913222623490152e-06
78.62166220002109,-2.4933599666032435,10.561372008662687,3.3170528048010842e-06,1.319555620737811e-05,5.2390988520940036e-05,2.068446333644266e-06,2.4571378757524e-05,2.4888766974842225e-06,3.106904492619861e-05,4.879719457165871e-06,4.6648629311267605e-06,3.1112925312947826e-06,1.0835985171264683e-05,1.0309319233967661e-05,4.971408290532346e-06,7.444515205056482e-06
78.7478312641033,-3.162979650338121,13.906301184361354,4.477177654143371e-06,3.09440260551907e-06,7.784318355560115e-05,2.5062627303910316e-06,2.0774901947797273e-05,1.5445777781951535e-06,6.115234263138393e-05,4.549798787665449e-06,4.087335409818912e-06,2.8617849248132815e-06,1.710559858621986e-05,1.0530914983815964e-05,8.65832473146199e-06,7.918698630230452e-06
78.84607800003141,-0.847268802156971,7.216901494650521,1.0143000729196723e-05,2.4546223823976873e-06,5.878930896679499e-05,2.1207979867406323e-06,1.641595891487644e-05,2.4437830582507577e-06,6.0939389011443975e-05,4.247441428038495e-06,5.146101380774161e-06,3.6233145021962363e-06,3.68276882243257e-05,1.2243763374900137e-05,2.264255117252695e-05,8.39919018560055e-06
78.91176752198953,1.6715295271808501,0.9533450858711698,1.2166337645591907e-05,2.574518548800439e-06,3.6243248559229987e-05,2.8346886414645403e-06,1.149226286883475e-05,4.694304016683221e-06,4.070210380228394e-05,4.522050831113956e-06,5.829467577615733e-06,3.2183814775080677e-06,3.44554565122303e-05,7.632838477450144e-06,2.5742924471786028e-05,1.1579604303577704e-05
79.06958350009518,6.092639593688107,-6.824753073988972,2.5522378171340425e-05,2.5459002548090595e-06,7.886235156281924e-06,3.833690730238832e-06,2.1784687235368674e-06,1.7906611296441466e-05,4.231854252225858e-06,5.521504417422736e-06,4.5032069357062025e-06,4.0119690246166935e-06,2.1727321606162658e-05,5.089427058535824e-06,2.0922894322913394e-05,5.932830585896561e-06
79.11900530004641,14.021529567875957,-9.208395380954759,2.048857182329128e-05,2.818855784468565e-06,3.0646696769374175e-06,1.8258023787355776e-05,2.072162033116994e-06,2.8516498138424498e-05,2.7852162720846836e-06,1.5725911688619725e-05,4.734995333960169e-06,3.485591623155893e-06,1.633083272276564e-05,3.7886706751622804e-06,7.075431887375517e-06,7.443429063078546e-06
79.23949877824634,18.358012784041154,-9.501547436722003,2.165885769458189e-06,5.947090168257022e-06,2.5875422939413156e-06,4.241593771231824e-05,1.7344841500950064e-06,2.68041015004759e-05,2.324458839384032e-06,5.984817712376064e-05,3.994065009880958e-06,2.8120730888325766e-06,1.750411682229364e-05,1.2103826657671165e-05,5.898839587097906e-06,8.163669299392833e-06
79.34971810010029,23.853111004520855,-9.996755218257892,2.270040523995589e-06,4.069777977269743e-06,3.446818048420942e-06,3.9634692246919543e-05,2.622608358069488e-06,1.7484300354806345e-05,2.4478391748935568e-06,7.137797559750365e-05,3.953637658206672e-06,3.036311126616861e-06,7.039782147033132e-06,1.2852139857474392e-05,3.5340630543692714e-06,2.0783237799042523e-05
79.43518449994735,14.66395176994042,-8.269969757096428,2.9179123913134964e-06,4.336774825893087e-06,3.5213379108317624e-06,3.76832776179353e-05,4.988633863078388e-06,1.469733220093538e-05,2.229545420428861e-06,6.605920280695107e-05,3.428894648096691e-06,4.281881621824605e-06,5.043761543311589e-06,2.2096840270980376e-05,3.796696044735336e-06,2.32771104936295e-05
79.5592076969333,7.927887797830127,-5.538010109504903,2.6859450112949266e-06,5.057752106678148e-06,4.375832075509708e-06,3.15002263074039e-05,1.0442464280864657e-05,1.1917495371467372e-05,2.7559449167451006e-06,2.852085205046956e-05,1.679402472640655e-05,4.307612633279066e-06,4.808177553090699e-06,4.516437163946117e-05,3.765014479729663e-06,3.1967408251279896e-05
79.64829118119087,3.223144303437369,-4.3722941021394535,2.356088041304259e-06,1.1531301406071222e-05,3.3629007628861596e-06,4.13648391623478e-06,1.474264675483934e-05,2.758050812075013e-06,2.8447797685937664e-06,4.824771907800801e-06,2.7071020306803147e-05,2.9567353110527404e-06,8.02168560785223e-06,2.0605269517105773e-05,5.422626013624969e-06,1.2645129850829293e-05
79.74149001872865,0.24086534682155064,-0.16327043974182004,2.9784713915434924e-06,9.021687565000435e-06,9.473987907540779e-06,2.6380646084037947e-06,2.1751587223120643e-05,1.8398022252558447e-06,1.9592760996515154e-05,4.503058690225306e-06,1.4352794764850148e-05,2.5527746855759607e-06,4.0743611811192885e-06,7.022990081150174e-06,3.413762747049376e-06,5.882774392863105e-06
79.83357503754087,-2.0508892702160675,6.991854099342724,2.491791429695251e-06,7.623815810178614e-06,3.5704847035140184e-05,2.4492289699948586e-06,2.2371118684461245e-05,1.955386971116757e-06,3.5439848694510554e-05,5.563393935294801e-06,8.523392976796869e-06,3.119963404830558e-06,4.989580294520356e-06,8.30202470969623e-06,3.835122157477847e-06,7.461776781815043e-06
79.94945912493858,-2.955160189261667,10.95656500126125,3.518944928450413e-06,3.773073618462607e-06,4.507196348602642e-05,2.3791302411309684e-06,2.348038173734219e-05,1.8957251739109529e-06,5.432176288102579e-05,4.400463478832673e-06,5.374913332164314e-06,3.4823618292527066e-06,2.2383163533055315e-05,1.034928880095559e-05,8.318453126980325e-06,8.508892436102635e-06
80.05915710004047,-0.4363240702163085,7.869598765844833,4.840673258326999e-06,2.7581191096630808e-06,4.155543931689817e-05,1.8290982319599008e-06,1.4154057323379528e-05,2.1800853940839124e-06,5.748328322104848e-05,5.354967378254921e-06,5.5766055539159215e-06,3.030019034196128e-06,2.4681035814049717e-05,7.905034028722666e-06,1.8929042297013312e-05,8.883376303294267e-06
80.14321010012645,1.07166736892963,1.1719958196542135,1.7250034643745354e-05,2.284464169459145e-06,3.516254415519904e-05,2.083077784757816e-06,1.0096650581055357e-05,3.246538402177085e-06,5.034924901019582e-05,6.742699370583464e-06,4.843527884295581e-06,3.4774065564816856e-06,4.4340723200088335e-05,5.438662299714844e-06,3.08686830040435e-05,6.487873548593908e-06
80.23864380002487,3.7638577553475008,-3.339622020810958,1.5224427378064594e-05,2.171792818195177e-06,9.336475574935384e-06,2.704794079423767e-06,2.4384605575292224e-06,1.6171397586824603e-05,6.274009009314791e-06,5.288330457676679e-06,4.703420791210578e-06,7.875871725777534e-06,2.9160760461545767e-05,4.8628433724149645e-06,2.392168884880577e-05,7.6381760523731e-06
80.34911020006984,12.742555987915377,-5.961814628618604,1.241257771611604e-05,4.303401555411273e-06,2.735302168463933e-06,5.754833486561104e-05,2.442659727998491e-06,3.3755897036407467e-05,2.5477912025603356e-06,6.697469847570655e-05,3.992052675713472e-06,1.271307599325541e-05,1.1457562943394044e-05,5.82114091339857e-06,6.976239209302174e-06,5.78044282844246e-06
80.42563528125174,21.969876359365955,-7.709646014007763,1.6904859730419688e-05,6.5058718432410125e-06,2.7086281787514344e-06,6.52042365911505e-05,2.468463556731901e-06,3.265952818154699e-05,2.5691904497820387e-06,7.610348893733607e-05,3.7828798743968725e-06,3.0487609258492466e-06,1.1105706923598868e-05,1.1198941949448285e-05,5.197258677759651e-06,9.708490388115277e-06
80.57343240000773,25.05471894927476,-8.534513965837174,3.814819231042072e-06,3.882403782574545e-06,3.6451820869384577e-06,5.199589159397788e-05,2.464285842547677e-06,1.7425465033980602e-05,3.298403638622488e-06,8.077532817610914e-05,3.1817159928289343e-06,2.50167705570248e-06,5.471535166974785e-06,1.9806288558016e-05,4.170914813807112e-06,2.0685646103730443e-05
80.62889040011214,16.14199408135016,-7.229899872289219,3.915093262356431e-06,3.6273134660237037e-06,3.792376928424603e-06,4.2275009879867206e-05,2.6648160344832253e-06,1.6015953305439066e-05,2.7719351027494363e-06,8.163737126380971e-05,5.033486659533602e-06,3.796190085918844e-06,4.333933822767747e-06,2.643544884392987e-05,3.3936958035132972e-06,2.515605695122701e-05
80.75255959999049,7.90829189194693,-5.179368989637144,3.247692832139077e-06,8.652837487440064e-06,5.570727836510791e-06,4.088366756868739e-05,8.700932018932973e-06,1.0817221981331255e-05,2.6555317935139235e-06,3.0166443714524205e-05,3.2171568859428354e-05,4.654059489208231e-06,8.473505866760764e-06,5.3296218324631864e-05,3.998880710963055e-06,3.7525088251127533e-05
80.85147700004745,2.463552158184772,-3.179425444900406,2.3637526079743745e-06,1.0157287662482996e-05,4.240805799212757e-06,2.885570876404649e-06,2.0447353839497347e-05,2.5438872870296847e-06,3.1992854779347366e-06,5.189782561387509e-06,2.439080971320767e-05,3.611900797446999e-06,6.57110480487537e-06,2.4576815422715468e-05,5.825029384733166e-06,1.3372088677061925e-05
80.94380712509155,-0.1434979360605477,5.301370075064132,2.933422557454948e-06,9.813685503215763e-06,1.878923220091736e-05,2.2791068748924425e-06,2.851140973435909e-05,2.049812146675747e-06,3.691652392779857e-05,5.080161082889716e-06,1.809522107369028e-05,3.1666180234256825e-06,4.793241887698093e-06,9.083059401047833e-06,3.417645886842226e-06,6.411418357129431e-06
81.03370279999217,-2.669791021571744,8.944346985220118,4.65161856766136e-06,1.1050476503132409e-05,6.535697894890876e-05,2.4798322355677832e-06,2.7668635195270175e-05,1.8543982989482624e-06,6.365937176807189e-05,4.127975932642208e-06,3.2879174527164976e-06,3.117863771081316e-06,1.225557540521858e-05,8.841526432846577e-06,4.546106006992933e-06,6.943640728580164e-06
81.14014104526723,-2.645397491143878,9.927209059943065,3.779006164485424e-06,3.5850521479397233e-06,6.377895859574283e-05,2.2041588450036445e-06,2.5007461704983456e-05,2.359915193057405e-06,5.54539009738531e-05,4.342496549600808e-06,3.4342172070152893e-06,2.5218711919875953e-06,1.4917266570602582e-05,1.2877181551393059e-05,9.414205923331379e-06,7.2428159068411006e-06
81.22208839998348,-0.05307468098495225,5.220836297677855,4.966285619020143e-06,2.8621801971371045e-06,2.4933367996889854e-05,2.096505700211241e-06,1.4937391284663293e-05,4.435787817365017e-06,4.357510169902357e-05,4.045425686476717e-06,6.8505466836200035e-06,2.8625192322699143e-06,3.532079969589084e-05,9.424078597502955e-06,2.2375722182523034e-05,7.185875400661685e-06
81.32547959999647,2.4959184986883014,-3.02167948776709,1.936187762503128e-05,2.2865055917721456e-06,2.970441193744621e-05,2.8204895270327062e-06,9.098934537727772e-06,6.230158447800136e-06,1.8773186457767196e-05,4.020983131066952e-06,5.940434945531968e-06,3.625358389644623e-06,4.40292492800018e-05,5.359448039031599e-06,2.6552320596834425e-05,6.331453354323912e-06
81.4459706999478,7.889439683016995,-8.387811134793484,1.2767211929401449e-05,2.752793087511176e-06,3.3786521327617807e-06,9.103998243029112e-06,2.183903166189529e-06,1.5186199451890886e-05,2.8471169956073702e-06,9.319540886305292e-06,3.893239971542778e-06,1.3695428902341366e-05,1.456100746513465e-05,4.468378248772419e-06,1.2790972821814478e-05,6.786309783635536e-06
81.50877100008074,15.233015553677134,-9.468824817595268,3.273808952871999e-06,3.349910185237304e-06,2.258947731828133e-06,2.703104588344536e-05,2.1765662368161357e-06,2.1712061257259026e-05,2.5416068488934053e-06,3.166991997901486e-05,3.6516630705250954e-06,3.900800577229601e-06,1.2863281261544335e-05,5.435974334695641e-06,8.537564695038671e-06,7.158393572752499e-06
81.65347070002463,24.24519980314464,-9.238003711643566,2.5727520254211063e-06,5.281159814931618e-06,2.67395801003282e-06,5.083413027683717e-05,2.392068398708242e-06,2.581559366243692e-05,2.5272881910979407e-06,6.971844667158961e-05,3.997803237600819e-06,2.998474292275593e-06,9.795370701245711e-06,1.3651916124086182e-05,9.991180981314433e-06,1.3267623813665552e-05
81.7386542999302,18.746130971314745,-8.25206028285371,3.6623120543496132e-06,5.755951724564095e-06,3.624120106864307e-06,6.157731155701818e-05,3.8038489589159355e-06,2.1048693180938243e-05,2.3672012945938775e-06,6.143037893380457e-05,4.564573115735183e-06,3.1552299759120223e-06,4.632763454681931e-06,2.9132089099979814e-05,4.121899747428484e-06,2.1346041660414087e-05
81.87226750003174,10.166221409980844,-5.566167293694079,2.860353347174599e-06,7.638595200306134e-06,5.227301467601635e-06,3.1471362454395535e-05,1.01735826223502e-05,6.528557674226223e-06,2.8833417035712163e-06,2.5629299812737304e-05,2.772527249087553e-05,4.645808886650407e-06,8.518984267998318e-06,4.118238829198934e-05,4.552347003162252e-06,2.4997696050607056e-05
81.921112800017,2.650438246472425,-3.6485329879624038,2.6590345799361227e-06,9.313826389695732e-06,3.765071817243878e-06,1.963985119029948e-05,1.8837908359076335e-05,3.823332637719841e-06,2.7251979438770586e-06,8.0220419425903e-06,3.140448797930147e-05,3.7008079571634204e-06,9.449859478570681e-06,3.475858884559389e-05,4.868240177465088e-06,1.817277899702413e-05
82.08360433753114,-1.1798733350243462,3.0540413519532086,2.762150544087807e-06,9.61673061839885e-06,1.9833939962135265e-05,2.243188727618e-06,2.8327091965435597e-05,2.109772104978464e-06,2.7156699694700148e-05,6.526365636587973e-06,1.0371540264210017e-05,2.43659681067157e-06,3.965819177917578e-06,7.84765283397451e-06,4.626144775500097e-06,5.5696449148316365e-06
82.14117763750255,-2.714855491612832,8.75542459736215,3.404285214534571e-06,6.237786551153103e-06,4.072546174229756e-05,2.249787902304667e-06,3.1436111571631845e-05,1.85081813283504e-06,5.051878975876851e-05,6.24697726032833e-06,5.08333387945244e-06,2.924939137135541e-06,8.973838522156585e-06,7.542721244406725e-06,7.376951920021609e-06,7.795319309696911e-06
82.26554691256024,-2.8251380579715115,10.425665973194,4.119400647839145e-06,2.51922725487872e-06,6.17286578163418e-05,2.3346188743657295e-06,2.5547202972307474e-05,2.6467687699091682e-06,3.7399818154332435e-05,6.431033425478578e-06,4.8489368467167045e-06,2.5568341137058556e-06,2.2261264178350015e-05,9.597154541845097e-06,1.6751646578679008e-05,8.832573297401317e-06
82.32109600002877,-0.3719105229826405,5.921046091777948,5.581255042829724e-06,2.4648912715654382e-06,5.251570661541533e-05,2.0339993891178665e-06,2.1448523402121332e-05,3.596968962126062e-06,3.7321884759626935e-05,6.558496125277392e-06,6.3419386386383935e-06,2.705429161288321e-06,4.21111302601025e-05,9.586596082026225e-06,2.2695409515479892e-05,8.22242690022925e-06
82.45930571871577,4.255570569144117,-1.1000979481767832,1.6909310589247904e-05,2.3405525672557943e-06,1.653305955828788e-05,3.825537809516894e-06,5.9104849564668766e-06,1.5604412342252128e-05,1.24946471709942e-05,6.599597945288251e-06,5.406582137534507e-06,1.5001902810669857e-05,2.894624666726273e-05,8.291924412391211e-06,1.9895334125263283e-05,6.597873533700179e-06
82.54166897496907,6.710167299088377,-6.12489030364789,1.4884297596269515e-05,3.0781001898576327e-06,2.8860563405139015e-06,1.0103531633365478e-05,2.0775688641648156e-06,2.8379102737218012e-05,2.794234463169517e-06,8.475795998935998e-06,4.375003954070584e-06,6.179442030101132e-05,2.2059036549093992e-05,1.0870614818430595e-05,1.1886996677071347e-05,1.0961198851832538e-05
82.6687007000437,17.832006913830604,-9.95045901728214,3.39359616090988e-06,5.780465745695016e-06,2.860116039693936e-06,4.366266914469519e-05,1.975017020889961e-06,3.6714806119189326e-05,2.959286437137794e-06,7.013727561169855e-05,4.6177257740644045e-06,5.1183290317012846e-06,3.263063258677479e-05,1.0724268593240405e-05,1.1662221963125566e-05,1.0317539656677924e-05
82.74237470002845,25.76136742188631,-9.595483800614748,3.661740692121374e-06,6.080852077076379e-06,2.501580107763179e-06,4.961749061515156e-05,2.4174831254006883e-06,2.683321286619499e-05,3.092120239742293e-06,6.03792638026692e-05,5.161596723611589e-06,6.483507110197867e-06,3.023024715572065e-05,1.487453693381888e-05,1.1229942890080916e-05,1.6686274342897733e-05
82.85317040316295,14.494387092973628,-7.166351281450768,2.379056685328574e-06,5.597085341689719e-06,3.022197702081589e-06,5.2480732885516834e-05,1.3469766130627308e-05,1.7808533852000624e-05,3.0975444823811494e-06,6.707935930264014e-05,7.479832503591593e-06,4.0677616475813786e-06,2.735695628559918e-05,3.271352184405262e-05,1.6530440243555352e-05,2.9513907239616884e-05
82.9599256500369,9.182478715114254,-5.773210135331756,2.299265981615838e-06,7.405157532796501e-06,4.5546335354508805e-06,2.8389896033986248e-05,1.7680502147399928e-05,6.859146804355022e-06,3.102705769706214e-06,3.928001909929437e-05,3.981926165043567e-05,4.492091999874464e-06,7.69998301539742e-06,4.888174332738021e-05,7.242769851055872e-06,3.5208830351434386e-05
83.04176158749033,3.911181712358833,-2.938903032051023,2.5370816905297464e-06,7.945837250097588e-06,4.367286989172388e-06,6.153690117866811e-06,2.9030305526818704e-05,3.526720270564194e-06,3.522671847273033e-06,1.432077990201451e-05,3.3371391990127995e-05,3.963612841547088e-06,8.474739933066523e-06,4.1855527825375175e-05,7.205010151047456e-06,2.2594193838111917e-05
83.11390382342506,-0.42397718252433636,5.189497208924103,2.7205397846797032e-06,9.358260059816798e-06,1.0548066007786605e-05,2.6455401561296696e-06,3.8328163222511316e-05,2.215620964207612e-06,2.1281013442083372e-05,4.6923567743002624e-06,2.7952044614067546e-05,5.579807550093446e-06,7.578460630994742e-06,9.274393923964382e-06,4.902830308443309e-06,7.670999800642185e-06
83.24265470006503,-1.8683504394941666,15.044228055329343,3.178870991643831e-06,9.208880625361423e-06,5.6827649362345535e-05,2.3272663803943084e-06,2.9670709796645137e-05,2.1914084078160603e-06,6.184694252128144e-05,5.291080511026973e-06,1.7028137238954694e-05,8.881342512226269e-06,6.771425896190077e-06,9.12625564497531e-06,5.689277783653035e-06,8.078442723333979e-06
83.33923670003423,-1.9786506969427422,12.969147244805882,3.743818409503329e-06,7.983396584996713e-06,9.404370211983347e-05,2.6764982656285303e-06,2.2771900442453845e-05,1.9037305033056149e-06,7.915448284728579e-05,5.684508633629184e-06,3.567742479459636e-06,3.7184631203539993e-06,1.8795139618671156e-05,1.2318482693984446e-05,1.1221097711571086e-05,9.32641799064923e-06
83.4221767000272,0.739729112803321,4.849534887431714,1.0973476361448347e-05,3.882959641391248e-06,4.562854422132524e-05,2.7543467702112137e-06,1.3554716054407435e-05,2.5839046113051392e-06,0.0001013595639662,4.67414221738965e-06,4.9987807950898475e-06,3.7000803863194176e-06,3.859808084110824e-05,1.012066463503901e-05,2.840215801267591e-05,8.128800860251646e-06
83.55399164999835,2.7453956246277955,-3.708084862599859,2.460993596022645e-05,2.8330410370703176e-06,2.7280339551077982e-05,2.6858262582186018e-06,6.070157415276293e-06,1.36303782034483e-05,2.7963159054806187e-05,4.523247297615778e-06,5.481604928450224e-06,1.3099847241090976e-05,3.74191076288507e-05,6.543871740356319e-06,3.121734844569041e-05,8.115151960868235e-06
83.6251017000759,12.58454837542689,-10.105025827397386,2.6986723711807305e-05,3.5534810520610163e-06,7.089003107168352e-06,7.65915151284041e-06,2.4071508924523213e-06,1.9177101421347035e-05,2.593819509676572e-06,8.9712624424169e-06,4.410911405820642e-06,1.552862911333794e-05,2.419462461117755e-05,4.927817512951491e-06,1.0133511626568998e-05,7.768231743261045e-06
83.75537884380901,20.389872972850426,-10.81898981370565,2.964326623899062e-06,4.836300776217945e-06,2.3111937950248727e-06,4.8621708882385166e-05,2.29599720305326e-06,2.5345285675466215e-05,2.311426628741188e-06,4.749678425402761e-05,3.0981518951172488e-06,3.0115408318744377e-06,1.9377622802376126e-05,1.0186404163586662e-05,1.721315610715361e-05,9.585752483985357e-06
83.82670320005855,25.05687190680197,-10.37091197454253,2.7276211262358374e-06,4.2371067489019105e-06,2.3885480357736866e-06,4.1045997264820255e-05,8.205653204995366e-06,1.926651823932344e-05,2.2924163020560146e-06,5.8492763279778807e-05,3.089702486844102e-06,3.4313845266385556e-06,9.392221955889785e-06,8.971618791169872e-06,1.4841957865288823e-05,1.1479783139124896e-05
83.94182806252502,17.78996288966572,-8.248492428305248,2.187668009965491e-06,5.4010469915719644e-06,2.302801027633676e-06,4.418160695632472e-05,1.127720969633844e-05,1.208981007847246e-05,2.227143636197578e-06,6.574457208623482e-05,4.188319954578322e-06,5.0741293239115565e-06,4.386102087806844e-06,4.038837307661381e-05,2.561666085942433e-06,3.4590581209941475e-05
84.03538090002257,8.21299372110435,-4.890597237632592,2.587601495206532e-06,1.2185781546204226e-05,2.729971282753945e-06,3.774667576605184e-05,1.6706486662128025e-05,8.674101923467106e-06,2.633890226421229e-06,4.8232977932475953e-05,2.2827449753734825e-05,4.911413928691454e-06,6.736672532931691e-06,6.013269052565858e-05,3.4334830534189485e-06,3.42734325427142e-05
84.13181779999286,-1.331791468187839,0.521125131398211,2.308165950053984e-06,2.3083328130567584e-05,5.3371644295175184e-06,1.6798152217287143e-05,2.856686808739237e-05,5.284370522698225e-06,1.4831048379619835e-05,8.659138679066988e-06,4.492297523014475e-05,4.112223420033875e-06,1.1609879093429912e-05,4.437100721522276e-05,1.0126879849118328e-05,2.743410098414909e-05
84.27024080010597,-10.740622528839271,11.092056938735702,4.509693072762471e-06,2.6959165587778187e-05,7.982577577203902e-05,3.248785658636227e-06,2.145072869636492e-05,3.666110851566399e-06,4.8080261882661736e-05,4.337346599245816e-06,4.13395729840527e-06,3.412698806167432e-06,9.890410204609272e-06,1.698183397631022e-05,4.963705609550128e-06,8.843438502083734e-06
84.36770149995573,-10.66992670910292,21.51621029035573,7.085309594900038e-06,1.3902525154007593e-05,6.857161338322924e-05,3.6415425103406458e-06,1.4854961187743624e-05,6.299244315351918e-06,8.072986615940603e-05,5.516779980504116e-06,4.883968894774555e-06,5.447008711427512e-06,1.59556617461122e-05,2.09213485127666e-05,1.1143329404271746e-05,1.4338745695841397e-05
84.44844770000782,-4.178652114111879,9.786893785360846,2.2160751970772445e-05,3.738414841530471e-06,9.02247489633451e-05,9.58153536152163e-06,2.1293448867045483e-05,8.486009205013548e-06,7.707829345289806e-05,7.099024274755766e-06,5.718621750996999e-06,6.447950212854367e-06,4.251015969989416e-05,1.5679049597975683e-05,2.394190960291785e-05,9.632331217765277e-06
84.58139840012882,0.1914098761532212,1.5247127070680406,3.41956096272236e-05,4.462739128250626e-06,3.638506504366929e-05,3.5255490859327855e-05,8.281613145052933e-06,1.8561086722434058e-05,3.936612301738667e-05,2.4169810014099823e-05,6.274678817006245e-06,6.085379163252074e-06,5.966423141318254e-05,6.901549123471168e-06,3.9769552367840424e-05,7.080533976398363e-06
84.62478022498544,6.17124241495571,-7.274368250485517,5.130092620227851e-05,4.286447741258833e-06,2.5902040545067792e-05,3.239392430336994e-05,7.711809136164223e-06,2.0362924647484152e-05,3.695255581903055e-05,2.296999806449385e-05,6.415485248522479e-06,6.074125203739696e-06,4.75047033147786e-05,6.63260101302638e-06,3.4416674628945186e-05,6.030456993437928e-06
84.77049050002825,20.65432480981473,-11.61583033569554,4.65892046420897e-05,5.87692792181572e-06,2.691119461481163e-06,4.401144094560186e-05,2.5593035604547733e-06,2.5430076260417088e-05,2.491863530026215e-06,5.7127486593308646e-05,5.112937945897624e-06,3.962397490367309e-06,2.8103908740157354e-05,1.1739223633053796e-05,2.2378907596598677e-05,8.601368163990755e-06
84.83252060005907,27.26452099987856,-11.695894753078193,3.544075390610116e-05,6.072726234638556e-06,2.582975775081291e-06,5.4481917954200034e-05,2.1712311615930454e-06,2.617782811413391e-05,2.091063702957463e-06,6.81715841771449e-05,3.995284810324329e-06,4.365499422253472e-06,2.646538861494938e-05,1.4394417470196448e-05,1.4242397746372524e-05,1.4210142007304315e-05
84.9521458594827,19.95601311821512,-10.59888147626014,2.20038890025782e-06,8.631211054570168e-06,2.154291028249656e-06,4.981379609186965e-05,1.5351354734345457e-05,1.799146347411667e-05,2.245050849231003e-06,6.011892855449459e-05,4.166277240019426e-06,6.5685625786755804e-06,2.115974076932184e-05,4.6542182736494274e-05,1.1017068551185998e-05,4.008704256353341e-05
85.04772779374616,13.262436248427594,-6.541081384434838,2.3168705688848307e-06,7.38724597622831e-06,2.4963107105874777e-06,5.077288811582221e-05,1.7454442642373204e-05,9.900423079958718e-06,2.8688751047874235e-06,5.9490522822314584e-05,3.2370841706174403e-06,6.472451796698899e-06,3.4253283517473826e-06,6.714655930866486e-05,2.935152293778182e-06,4.349140433510478e-05
85.14123934379313,4.628732200699089,-4.196158078025949,2.281217392330153e-06,1.6910911249252873e-05,2.7306386571772553e-06,2.3889244282487807e-05,2.4425365579227024e-05,6.716085740128082e-06,2.5803903751069593e-06,2.4363889628004012e-05,3.0305803291624728e-05,5.891948757741619e-06,8.649982391796666e-06,8.544827639132436e-05,6.1930549212756265e-06,2.595892553897872e-05
85.23786733282031,-1.4682811610926216,8.811833002693573,2.524944370332118e-06,2.715355585356346e-05,2.4936771672905073e-05,2.914743526829722e-06,3.4736657427497086e-05,2.3059844683565386e-06,4.7402289265599244e-05,5.006206586728626e-06,2.7974296946269562e-05,3.736175899964681e-06,5.872240593279864e-06,1.813926229596439e-05,5.880130563869564e-06,9.060877568790654e-06
85.35435119998874,-4.832837082008632,17.18383179263713,5.551873514705152e-06,3.1672263817402377e-05,0.00013032698853615002,1.895989243123e-06,2.697050820743903e-05,2.6296755134602337e-06,0.00012025019488045,5.314078224375296e-06,8.907864133942362e-06,3.5912929259219313e-06,1.730946885612449e-05,1.8808174468857262e-05,8.775126588838504e-06,1.1206414027088967e-05
85.45811638759915,-4.833964062829747,14.58659852555976,5.003569491954885e-06,7.534443032345475e-06,0.0001014663089886,2.046697266052978e-06,2.1480353487590315e-05,1.968281130343809e-06,9.807988023568364e-05,4.8425667872935045e-06,5.403984898258932e-06,3.349904676436768e-06,2.867480633605956e-05,1.024827286151435e-05,1.140544644513254e-05,9.107144391372276e-06
85.55091200000606,-0.9954307384031598,2.9058602882440985,1.5402184090726467e-05,2.668713086163961e-06,5.393109315788648e-05,1.2477161505375149e-05,1.242531953129244e-05,5.42053157154674e-06,5.9426470838922846e-05,9.844854657476291e-06,6.676360162200694e-06,3.276933641713853e-06,5.0872444855781806e-05,1.2083121585664462e-05,3.613695928102366e-05,7.587469122130836e-06
85.62245486251777,5.164671646159705,-6.846077405448087,3.783343801286257e-05,2.7226810752112613e-06,3.8784956587053174e-05,2.2897213802883256e-05,9.413940592084142e-06,9.247074278241033e-06,4.367188431795979e-05,1.2844680384344145e-05,6.670358451591198e-06,3.887990585871514e-06,4.769960131290805e-05,1.0569479599049944e-05,3.257447226923982e-05,7.681834874490748e-06
85.74517679377459,19.402720164470736,-11.254575292460881,3.343908246813714e-05,3.914187818618445e-06,8.351811384952074e-06,4.250720299003902e-05,2.188619406651552e-06,2.2207518310654046e-05,4.048972125204056e-06,6.0131097730129495e-05,4.190595303219411e-06,3.852821802006899e-06,2.815881399005287e-05,1.0921675898183531e-05,2.4065063803344943e-05,8.621881626199148e-06
85.82692370004952,31.985698002178616,-11.968081870526913,1.5709221706320222e-05,8.653338884435743e-06,2.457374320376386e-06,8.126232477695279e-05,2.074444486164399e-06,2.9651972870875143e-05,2.6329186361332786e-06,7.137866103136973e-05,3.939045614881507e-06,3.24006244856522e-06,2.0606588657047862e-05,6.294881611429531e-06,1.5164117868376156e-05,7.480685212134369e-06
85.95267601252999,23.247418182949765,-12.233922524754675,2.259995946829207e-06,5.686919826226213e-06,2.7560921098530357e-06,8.280804339687631e-05,1.0591733360551743e-05,2.5437301094408477e-05,2.5969172586509798e-06,0.0001091758389155,3.9018050320174735e-06,6.005797654618543e-06,4.241973605613091e-06,4.055601213378403e-05,2.6486235962169048e-06,3.782611147008409e-05
86.05088493129006,11.638548750083903,-5.696303511611022,1.907400412397489e-06,7.898569450509938e-06,3.046715214349502e-06,5.021414584159652e-05,2.0480079972235174e-05,1.1772134932027847e-05,2.860514657200435e-06,6.256684906015558e-05,4.112898917802183e-06,6.22316876453449e-06,1.0257816072031095e-05,7.020678763338909e-05,5.394072151419707e-06,5.0156600814629106e-05
86.12597453442868,2.711027659060975,-3.391550151687813,1.8898097095609203e-06,1.3991434747501258e-05,3.442542327133785e-06,1.9091063179951644e-05,2.6540862906719257e-05,5.940284750498868e-06,3.0624303173289743e-06,3.7088767598970613e-05,3.548240407295906e-05,4.594261642489423e-06,1.0172421174847557e-05,6.331015378479725e-05,7.346559745750731e-06,3.403955229838922e-05
86.23538309999276,-1.5822122118413615,4.836101411157698,2.3226031796445283e-06,1.4335868181615287e-05,1.0583145121919708e-05,2.167070180798134e-06,2.6259791132884424e-05,1.8290544491960653e-06,1.8266142792060908e-05,4.244721312090304e-06,4.7613352941702834e-05,2.7509139764985963e-06,8.465136823908219e-06,1.3919579473628183e-05,9.183326033075922e-06,8.485784360140852e-06
86.32264119997853,-5.453918885179479,10.61621837260851,3.806016681893417e-06,1.4378955626037356e-05,7.832437185964311e-05,1.9674776618504613e-06,3.182771181854501e-05,2.2241886467726244e-06,6.795792459258462e-05,4.914055896998539e-06,9.047483608479014e-06,3.295284260088947e-06,8.72019927456311e-06,2.006907024186741e-05,6.461999714158549e-06,6.718225723725103e-06
86.46438204386504,-3.968920824821503,13.78559331952771,3.8085064230422845e-06,3.3698660082797784e-06,7.042535950682754e-05,2.333623566737304e-06,2.547644283530168e-05,2.2690660150198113e-06,6.788499039714056e-05,5.315564300273392e-06,5.469225646172426e-06,3.1887059567791294e-06,3.530185229533081e-05,2.00723288147752e-05,1.818624609295931e-05,8.870257343765768e-06
86.54124370007776,1.7585960798803892,-0.4329579721134937,1.811544251119096e-05,2.5775315672177524e-06,6.730729655241507e-05,1.0342899222128505e-05,1.4572656823749024e-05,4.254493524704287e-06,7.839498981357811e-05,1.0096487979082614e-05,5.807637112951227e-06,3.6012314952509173e-06,5.786370558171596e-05,1.1333873019288558e-05,3.3269531658258355e-05,7.401657954930399e-06
86.64481969369808,11.805647232246294,-10.228567235901112,5.905821823458454e-05,3.2326247595061084e-06,1.4861840005008303e-05,2.2440492410569156e-05,5.047177325081482e-06,1.2089721937690776e-05,2.297943823762999e-05,1.0567938228966026e-05,6.840880488598183e-06,5.069684656449304e-06,4.1593245082421445e-05,5.493480034434694e-06,3.0028659284880915e-05,6.341333381471657e-06
86.77528000011807,24.52891609404287,-12.609310080510987,6.0136959451210915e-06,9.822058603719346e-06,7.632549023477735e-06,7.788295325494843e-05,3.706530165960838e-06,2.5002710187322588e-05,2.8368922087494984e-06,7.786776063359416e-05,4.957496514128874e-06,3.437669392531304e-06,2.6933689258598535e-05,1.2256608648595483e-05,2.0752367500217117e-05,8.346851541043026e-06
86.81626170000527,29.226364684738616,-12.27408781430153,5.149158071154767e-06,7.945971464091822e-06,3.607290007579198e-06,7.32798625184179e-05,2.798507138637724e-06,2.158881845353208e-05,2.0306615497957058e-06,8.157661970259133e-05,5.4545361131859695e-06,3.349904238394272e-06,2.6066115455507e-05,8.860452616000274e-06,2.050239780595421e-05,8.269266245627751e-06
86.94215070008067,16.147705724771676,-8.72678191570986,2.45839431473919e-06,7.380069885443263e-06,3.1397398293833994e-06,7.768712073065651e-05,1.6277301457363233e-05,2.0921152749825292e-05,2.479604006484959e-06,6.930953399398928e-05,3.9422291509451086e-06,4.713796366873503e-06,4.252373373242042e-06,3.426566669258561e-05,2.9844629830686267e-06,3.604285407126369e-05
87.04820715624373,7.581116190152752,-5.149204685253299,2.10611836245126e-06,6.068796389950326e-06,3.0825762995603128e-06,3.592078268789816e-05,1.6013264854600515e-05,8.207212918747579e-06,2.2545207098089425e-06,4.054174151820633e-05,5.6130026757858116e-05,4.158487904823369e-06,6.809596543475831e-06,5.08796929551535e-05,7.314509402901005e-06,3.0549326714003936e-05
87.13538124226034,0.5266065928134107,0.15106527346546672,2.28840494065287e-06,9.762653288974667e-06,3.6478125270419784e-06,3.0098436433349316e-06,2.6941270933248017e-05,2.689753377242246e-06,3.2534909839496585e-06,6.501438364723294e-06,6.33075503405578e-05,3.879164440357759e-06,8.981282360077232e-06,1.7863743634951436e-05,9.563905529487402e-06,1.053032920823746e-05
87.26599410001654,-3.970269467079976,7.322318832182858,4.2422905808508846e-06,1.0236052130688174e-05,6.642073940890982e-05,2.0649498910855822e-06,3.6954245617047445e-05,2.368147215194661e-06,6.277205833901416e-05,4.8208994510095695e-06,1.7634716958236155e-05,4.252377976917307e-06,5.363667411911383e-06,1.4010352494092124e-05,4.869648884712855e-06,7.765054377560566e-06
87.33220959996106,-4.331371567359232,8.192708620729547,5.168887315077539e-06,6.553296241541963e-06,8.447978264267827e-05,2.0770967789006433e-06,3.661339347161731e-05,2.338756971271977e-06,6.849866004440656e-05,4.245058533768348e-06,6.9998675991014114e-06,3.377340142691897e-06,1.3663834741318954e-05,1.456526919717379e-05,5.812523040304335e-06,7.685370071964765e-06
87.44910109997727,-1.516409209649078,2.604824257669195,3.358209699289002e-06,2.755827410719143e-06,3.999670235044797e-05,2.5196090447221788e-06,3.192801765282215e-05,7.840170241371367e-06,6.300325433639841e-05,5.269446002339675e-06,4.912905302634236e-06,3.199523226736926e-06,3.389591802e-05,1.4013653556788223e-05,1.4808474182304908e-05,7.853948335920484e-06
87.55108381254831,1.4695246601895033,-2.1963857210935025,3.633165106820411e-06,3.006186484976933e-06,2.0645358949374303e-05,3.7370702253724125e-06,2.2528485241526646e-05,2.055925896511047e-05,3.249488615175018e-05,5.542009446583023e-06,5.489837436770002e-06,1.118867750772448e-05,6.0417364813506404e-05,6.969981495398785e-06,2.9407718918824362e-05,8.398647117248443e-06
87.63315812352812,10.098000127647587,-9.39787159455688,3.30822281722588e-06,2.9302562263654566e-06,3.1011606011373334e-06,9.108709604740456e-06,2.4138736478329185e-06,1.5362241261680884e-05,1.060744120970671e-05,1.0371218146323115e-05,4.8126211186156795e-06,1.918144732697731e-05,2.478611131711781e-05,5.79529932831927e-06,9.671546329691867e-06,4.957837747865987e-06
87.75515377498232,18.050023224878903,-11.424027623621663,2.4461707660204012e-06,4.1160748637030605e-06,2.2137308126015417e-06,3.6545472840249624e-05,2.1717486555596807e-06,4.899327222062622e-05,1.998389356981952e-06,4.68705085995397e-05,5.059214707573143e-06,3.3054591725209105e-06,2.9243154830172464e-05,6.230784944695985e-06,1.3168970443238572e-05,7.348318511070462e-06
87.82838340010494,22.210137212770068,-10.559178621262443,2.3615340230215947e-06,5.444519482105951e-06,2.393820226980534e-06,6.380879714980809e-05,5.085580785923956e-06,2.3629657784156937e-05,2.1926909489964466e-06,5.001207437283314e-05,3.10787618624412e-06,2.801198671814064e-06,7.94611718711152e-06,9.709090431517216e-06,9.911477243586886e-06,9.732681459658005e-06
87.95375719992444,13.033024731073164,-6.523175843886962,2.1757716725460357e-06,6.550775403054904e-06,3.36409396649264e-06,6.467929788138404e-05,1.7390433435961016e-05,2.0838301411577703e-05,2.9432569551174234e-06,5.342857674974438e-05,6.041565857485326e-06,6.23390233913542e-06,3.658763256769367e-06,5.750310363231512e-05,3.080246928916403e-06,3.837970702225364e-05
88.06159519997891,6.166442365027564,-5.148646967980959,2.4277689815178928e-06,9.102172083000215e-06,4.369704920731699e-06,2.174644599169951e-05,1.8283928786699017e-05,9.87287782613694e-06,3.700763349677273e-06,2.757668081398877e-05,4.456979062466003e-05,4.923472667028667e-06,1.2696889628716589e-05,4.446586272437848e-05,1.2658140234909246e-05,3.1432704776778726e-05
88.13113333279034,-0.12561394931685355,-2.4694808029649162,2.269173597189861e-06,9.532038661926614e-06,3.334126383941774e-06,3.657583362904773e-06,3.1062432151227884e-05,2.1594247509293927e-06,3.0613958898092865e-06,7.033140758321701e-06,4.105391324964267e-05,3.1780226809448593e-06,7.3969565763427626e-06,1.4003210089110926e-05,1.0544944927703134e-05,8.070401305724212e-06
88.26961210003356,-3.7162527757542136,8.191783517639916,3.154511496408315e-06,3.883929176382892e-06,3.279146092021731e-05,2.4627962201492754e-06,2.7954449349599248e-05,1.8563807746642693e-06,5.543721274314982e-05,5.405975324304176e-06,4.241210260059921e-06,3.5961175295990544e-06,3.7188671788019727e-06,1.3333430974360834e-05,3.6644098641841325e-06,7.979131341129524e-06
88.3404497000156,-4.060161768168794,9.05942325323555,3.7222226456274206e-06,3.945961657687075e-06,6.316436193518196e-05,2.552482274831461e-06,2.779704572081086e-05,1.894919706078638e-06,6.978643628065556e-05,5.63299415316111e-06,4.074484209419932e-06,2.9733937021490744e-06,2.1822968114522324e-05,1.8305985789161786e-05,9.379669303717485e-06,9.992051633116763e-06
88.45442854997236,-0.3848414585664468,6.180350885291408,3.0472126824557197e-06,2.357827614498597e-06,4.045031218296137e-05,2.3726595770779837e-06,2.4733982140124865e-05,7.0743871917191295e-06,5.075221048011184e-05,5.1689148595781495e-06,4.218164072556929e-06,3.241214817386552e-06,3.404296585832941e-05,1.68499697205642e-05,2.0212866307769287e-05,1.1015017011088996e-05
88.55233269999735,2.404879850939326,-4.066194405954746,9.691593307493654e-06,2.341578727714656e-06,1.9969116874685475e-05,2.3439747357894117e-06,6.453306637236496e-06,1.2297636264177136e-05,4.077723755571407e-05,4.5463647840848045e-06,3.744600716140746e-06,3.3043105404388664e-06,3.118086592367363e-05,5.334860830055092e-06,2.018416434135865e-05,6.015342295556589e-06
88.65167083748383,9.451541754225959,-9.99376013811759,1.3043438805841278e-05,2.7588721429646824e-06,2.4090471812050778e-06,5.423328601539321e-06,1.8892291284886769e-06,1.8259173764967966e-05,3.034858521400671e-06,6.3569139656614216e-06,3.4198847561368257e-06,7.636905213230546e-06,2.245272927151903e-05,5.772165613519274e-06,1.3403159929632612e-05,3.9000680782178964e-06
88.74253598757787,17.566461863177555,-10.581132537926223,3.92389158958234e-06,3.2933377242819717e-06,2.032783746427936e-06,3.0970895700798894e-05,1.984983709062128e-06,4.5523369436183106e-05,2.3649560215702766e-06,3.2388607513414495e-05,4.544844512968563e-06,3.1531488884471663e-06,1.7987065317131968e-05,6.13030354258638e-06,1.0563603131938543e-05,5.954582742055388e-06
88.82982025004458,25.12325476552615,-10.406610448988284,2.4264623672939238e-06,4.263072365156954e-06,1.8246593467178905e-06,4.607831658228655e-05,2.137154561753456e-06,3.0354232998575774e-05,2.1265651429625903e-06,6.828414041934382e-05,4.664551578966848e-06,2.8758413801475432e-06,1.5493039887389197e-05,7.892410806857851e-06,8.019541783808986e-06,1.0072803835987266e-05
88.97472940001171,15.692799186413122,-6.449131573587426,3.089474442446635e-06,7.513578066688072e-06,2.550544125698832e-06,6.10973833848344e-05,1.3908265049768776e-05,2.008698122025113e-05,2.032993954510746e-06,7.711314400580482e-05,4.655526731537569e-06,5.791790253132769e-06,6.32643220664687e-06,4.371609326308275e-05,3.6552632048955873e-06,3.671261348155407e-05
89.0276045750361,7.892782973412044,-4.333858896073425,2.7301737927233474e-06,8.740454559533564e-06,7.130123402012326e-06,6.213405598075004e-05,1.6943471030338093e-05,1.6768378965774583e-05,2.697563962979536e-06,6.104156214267936e-05,1.1409878599631556e-05,5.331354512469882e-06,5.351607359741803e-06,5.505881427160277e-05,2.948948900052869e-06,4.237304446863932e-05
89.13239109376445,2.3832522938522622,-2.405828746793354,2.044488562037795e-06,1.1173551749296021e-05,5.961738464808532e-06,1.1801541429614834e-05,3.0262911285854573e-05,4.0716967572381e-06,3.4774729196034617e-06,2.4817461514664162e-05,3.1389781855485743e-05,3.318580582808211e-06,6.703641269247208e-06,3.431015499715087e-05,5.486271133580449e-06,2.6214843669238735e-05
89.25218060001498,-0.7413861146283738,6.323392966918824,3.5927669920735e-06,9.098199112090087e-06,4.366091742465769e-05,2.399496879363481e-06,2.896941875982044e-05,2.0928583874244404e-06,4.66476675833902e-05,4.748169571521548e-06,3.0513760709006523e-05,2.8636850688167293e-06,6.125700295025068e-06,1.0776166568239207e-05,4.880436776543702e-06,7.3775272045077404e-06
89.33036370004993,-2.960115437857538,10.464230784712685,3.4947017896028865e-06,9.665847211473808e-06,6.00962842925654e-05,2.4637830100909616e-06,2.997870086224988e-05,2.37012079768212e-06,6.928742061112102e-05,4.338700841370698e-06,4.1495935804301335e-06,3.171600507835976e-06,1.5228837309852104e-05,1.1691526167687022e-05,6.000816364072315e-06,8.505092780050123e-06
89.43865292496048,-2.12046139932676,7.698683707083719,3.5361881438159456e-06,3.1682517458483293e-06,5.921647294747311e-05,2.36553536801074e-06,1.964169986383787e-05,2.3647290812952663e-06,5.93832042424901e-05,5.801319944289348e-06,4.427961191864414e-06,2.7637809625652843e-06,1.8403326454378676e-05,1.3878507786772e-05,7.985489918490783e-06,8.97725563897718e-06
89.51079428126104,1.1909927881953442,-0.020080441072309,3.4414215042941414e-06,3.2180806085810177e-06,3.700529574657796e-05,2.7628738470062256e-06,1.751762477798146e-05,1.5450998069916728e-05,4.68793569937695e-05,5.59342821884219e-06,4.056209973569866e-06,2.830017777827783e-06,3.5089979188512285e-05,7.5943562155174945e-06,2.317354841019041e-05,6.300847203056367e-06
89.62116319994675,5.146555251560237,-6.459571815602105,1.3687695923531245e-05,3.2643435789901838e-06,8.54750075571437e-06,5.525544063282867e-06,3.912432802686613e-06,2.5229055571360924e-05,1.0929593422777814e-05,6.385024041532158e-06,3.738982439648228e-06,9.181167948769335e-06,3.2740244289782415e-05,5.274008104560658e-06,1.9413826101408812e-05,4.793536640567027e-06
89.72157640004298,12.35786732873137,-10.810652096461446,6.844742223423416e-06,3.4011757609125436e-06,2.4799802965828676e-06,2.5053227144215294e-05,2.5235413089955043e-06,2.969364522855141e-05,2.240491424680171e-06,1.666321440780014e-05,3.714652807154173e-06,1.3983563684714761e-05,2.9926348782174865e-05,5.557475598758753e-06,1.1815331996923383e-05,6.188458610652478e-06
89.84761515306309,23.888605743113107,-11.215765607966915,2.283065694735624e-06,3.775625335486205e-06,2.4202606749806856e-06,5.127768093934983e-05,1.8795409000575037e-06,2.814087840025783e-05,1.9620729914325736e-06,5.6017792511644745e-05,3.52839440163796e-06,2.676631656564696e-06,2.319535708045545e-05,9.801585929803945e-06,1.3796952780149066e-05,1.2082208420094863e-05
89.95153999998001,24.39838453511515,-7.028142371827759,2.44523998210885e-06,5.754406888706728e-06,3.097484340210233e-06,6.309745101806741e-05,5.111314046714361e-06,1.780973840290549e-05,2.043640452324079e-06,7.891613976483607e-05,3.835584035011369e-06,4.887844272474127e-06,1.584231381179158e-05,2.7515481296972888e-05,1.0040381251169888e-05,2.571125983200455e-05
90.01895925006829,11.1203543889918,-6.1796903691411815,2.43100900834198e-06,6.46340043985361e-06,4.8706836849704926e-06,5.907725933866133e-05,6.489669830946749e-06,1.5955161079838736e-05,2.171063402192178e-06,7.662157004531443e-05,2.030808345079448e-05,3.95050796438286e-06,6.539394317471087e-06,4.969952141127989e-05,3.844131200869913e-06,3.240051499504672e-05
90.14333970006555,4.691669840590407,-5.245555995209061,2.65324920485384e-06,9.1877910261997e-06,4.040782201351273e-06,1.9139838254400183e-05,1.7490596895041755e-05,3.316586361342046e-06,2.666373814092113e-06,1.766411201173401e-05,1.4365124381880913e-05,4.797698707185565e-06,5.376411724262748e-06,5.4366505024647855e-05,3.928868253450244e-06,2.5626142598382838e-05
90.23439949995372,-2.069730880694772,1.1038652382789556,2.4663328101189736e-06,1.078636436501912e-05,3.113017610567056e-06,2.244512961016128e-06,1.8323695113663597e-05,1.909403512017032e-06,7.561818609204502e-06,5.231881794241622e-06,2.260430934947968e-05,3.254141877724387e-06,4.599293219954284e-06,2.0819337128548844e-05,4.087678946331457e-06,1.2026551884677989e-05
90.35839560005115,-4.12198836181008,12.162968977528173,3.2136629711549756e-06,7.121665663606715e-06,4.531399260535871e-05,2.7874493436782868e-06,3.029280225518154e-05,1.802154086472104e-06,4.7159329057342776e-05,5.542607810678384e-06,5.6834496131274005e-06,3.659754495066109e-06,1.0678872243825414e-05,2.3958036330416875e-05,4.233129863762071e-06,1.29582286026263e-05
90.46468899998581,-2.9929842619102534,9.446416015125903,4.744290571589942e-06,2.9338097594839134e-06,6.891301878273689e-05,2.2489913981467035e-06,2.4700201390420315e-05,2.371073075375107e-06,7.04638789188612e-05,5.046030957290657e-06,3.679058342656966e-06,3.52803996259022e-06,1.7843450472313374e-05,1.5612490889106872e-05,7.32981162200749e-06,1.559279828325924e-05
90.55413839995163,-0.28199201772005916,1.6210633443991278,7.105569582137088e-06,2.9420720559269413e-06,3.83458922893198e-05,2.4478974062952075e-06,1.261062654164448e-05,8.26842392289345e-06,4.558965019398162e-05,5.0841135776222395e-06,4.539773282712218e-06,3.2869799354382656e-06,3.614752167956954e-05,8.942522543197728e-06,2.4747186101170138e-05,1.0958450977668552e-05
90.6556622001226,3.4040066198689134,-3.7143007978977813,1.5679167406153688e-05,2.5572850841069626e-06,8.743200988211265e-06,3.4460632845690593e-06,3.614893373005556e-06,1.7601389435904107e-05,1.1766636469866339e-05,6.312854918944925e-06,3.4183280195092066e-06,3.660777232322655e-06,3.617165214605203e-05,5.659833563207849e-06,1.7330632815203652e-05,5.450007855497801e-06
90.73716270009754,12.837254912911021,-8.171731548184448,1.2349614516275464e-05,3.226122814253487e-06,2.583202358351066e-06,4.14845008812789e-05,1.9262581646318645e-06,2.4339126770476165e-05,2.67361637141851e-06,4.257105856854218e-05,3.3275066595034226e-06,4.4845234745121045e-06,1.6251448426329812e-05,5.3043610823634166e-06,7.68955569432881e-06,6.115941959263378e-06
90.84837233129656,22.63084012296179,-9.204420740813628,3.363703740131015e-06,5.257834134458635e-06,2.4513758930029177e-06,6.083277912767561e-05,2.338561131229498e-06,3.7497890757255103e-05,2.5393162464063906e-06,7.080259931577975e-05,3.5758249814277343e-06,2.561395610007366e-06,1.177591833142055e-05,5.9574636927286475e-06,6.024742359756936e-06,9.092238699575305e-06
90.94668759999333,25.111343783104243,-8.519003659028337,3.456787487400805e-06,6.30377942160007e-06,2.646312869856421e-06,9.147163348903596e-05,2.2604917352993825e-06,2.41700414293032e-05,2.527733641355932e-06,8.652320107146568e-05,3.5220164083010284e-06,3.445011281689633e-06,7.806755472907349e-06,1.2697027617085152e-05,7.162784395709224e-06,1.622473886109265e-05
91.05036039999686,14.315088039078509,-6.559115760948341,2.3673299018724644e-06,6.273382702439124e-06,3.092862906509203e-06,6.664859268313172e-05,5.08551567006178e-06,1.889485504148489e-05,2.484597808311148e-06,9.085210549180515e-05,9.7268914038155e-06,4.497691129998114e-06,4.915690652306233e-06,4.35841760449684e-05,2.689331509936561e-06,3.716770966117507e-05
91.13726656249491,7.414337888791282,-4.200362772931351,2.9012628061676723e-06,5.8706740292790526e-06,4.754978632337467e-06,5.562812522340053e-05,1.3015101429390508e-05,9.525497694359423e-06,3.6572942211081354e-06,4.27317511678235e-05,1.5885814751324006e-05,4.042661912847752e-06,6.394877736139918e-06,5.040035592426515e-05,2.8483829146210414e-06,2.571876123458026e-05
91.2379286250798,1.2320366132393772,-2.905055187196988,2.741266769401161e-06,1.058145092159439e-05,4.265034362153158e-06,3.430813723291268e-06,1.963093074156376e-05,2.1749699885367147e-06,2.97692154072385e-06,4.9246637678251134e-06,3.655187377942427e-05,3.1374355629476976e-06,6.571092759555153e-06,2.205893201197135e-05,4.6412322005325885e-06,1.0294528587777234e-05
91.36580210004468,-4.7103898767978345,4.5338775409690895,3.828090497465007e-06,6.893829065202818e-06,3.123830217294677e-05,2.475302869670451e-06,2.2819610324033137e-05,2.1290449590492736e-06,4.901383827063693e-05,3.810574530670061e-06,5.034747580523808e-06,3.1936988869650484e-06,7.987165172714685e-06,1.5172382448900938e-05,2.847311238497877e-06,9.762902428585012e-06
91.42393819999415,-4.3934539949463005,8.984337675560592,4.017331746922388e-06,5.328776086709333e-06,4.499246672434995e-05,2.348973614324684e-06,2.4273441154821183e-05,2.117416055591771e-06,5.365744684854804e-05,5.221089185528859e-06,3.705344612685586e-06,3.096117177951592e-06,9.50312441407782e-06,1.7518771484992126e-05,4.765884693029665e-06,1.1843566336321316e-05
91.56097409996437,-0.19606181955881125,6.427280596290688,3.048486186342205e-06,2.058082187088745e-06,3.954115433045993e-05,2.139714695138859e-06,1.7086097516262662e-05,6.1147746349740426e-06,4.734434071094228e-05,5.357064980093433e-06,4.7608602767779675e-06,3.2013652586032886e-06,2.815791301842387e-05,7.667871210397862e-06,1.7416113563328267e-05,1.1980812192225994e-05
91.6380595000228,2.169065564553667,0.3021830809605941,3.7700174892976297e-06,2.3438546568134963e-06,5.0151911177943794e-05,2.5342819995432023e-06,1.0618880130358284e-05,1.2956287744602924e-05,4.107661202706897e-05,4.755257408896612e-06,5.854261697608494e-06,3.4928088157733645e-06,4.6814418676949415e-05,6.318907891368309e-06,2.754985551360094e-05,6.080776559133651e-06
91.7233128187363,4.148175440718665,-5.400510483431792,2.7093171025204896e-05,3.0945704303491174e-06,3.1793255969724975e-05,4.060851230186976e-06,5.268383431745443e-06,1.7515145773368332e-05,1.5837738379140455e-05,4.301073085510153e-06,5.145946319724516e-06,4.867575102851884e-06,4.181756362611121e-05,5.049397944630001e-06,2.1872355077271415e-05,4.3792923930780375e-06
91.84246710001024,13.636259020826774,-8.563523066343752,5.374027013374392e-06,3.1192626929420333e-06,2.8326647125429594e-06,3.201483019504876e-05,1.9001179388483851e-06,2.4248145918501927e-05,2.3819379099086154e-06,4.9248852455010986e-05,3.76254438535753e-06,4.294969313098781e-06,1.666294492819766e-05,6.484673587904932e-06,8.74878682233512e-06,6.42055353883462e-06
91.92848199995933,25.465622357878352,-9.28710905022632,3.1246857743213213e-06,6.4570925378814935e-06,2.683433977745487e-06,5.591276669708527e-05,2.05110074293259e-06,2.3551909061867092e-05,2.6498651922015873e-06,6.697516176290907e-05,3.455638891388938e-06,3.7810139734702113e-06,1.6965982636062882e-05,7.036449679749555e-06,7.289749860557288e-06,8.42905799852094e-06
92.06919810001273,14.29352481902404,-7.981718092918596,3.5892067103744515e-06,6.845476054766148e-06,3.74299527207452e-06,6.42633637870178e-05,3.299633106693999e-06,1.442084264778573e-05,2.2018063669607385e-06,7.323685565748168e-05,3.651441912108321e-06,3.865656208819103e-06,4.249491459968989e-06,2.914565717190876e-05,3.1110300134919227e-06,2.8883286085594838e-05
92.1134696000954,10.146292750845852,-4.894547673845016,3.44240569237412e-06,6.2751865791523145e-06,3.8373289334196255e-06,4.170122679330722e-05,8.795477003188037e-06,1.3035777139953856e-05,2.5917528044939377e-06,6.455461193402317e-05,3.5383563350569e-06,4.9781804141167e-06,3.7780668880481594e-06,5.116124793506785e-05,3.062558691995436e-06,4.403540540108309e-05
92.2435633999994,3.059571698944382,-4.00226731173639,3.6399251453313298e-06,8.793096848329724e-06,3.2467411971875467e-06,3.3583908577106324e-06,2.6844662887853596e-05,2.076174611392057e-06,3.5414244813374006e-06,4.039465533994256e-06,4.204057833325367e-05,4.544152030642804e-06,8.567097250744803e-06,5.0814259738618734e-05,6.046137911536059e-06,2.16807107792086e-05
92.3538263499504,-3.4119288739468328,2.108351056557008,2.274486451828103e-06,8.243764050546885e-06,1.0630236362450306e-05,2.385354535309936e-06,3.065712041369984e-05,2.81969270581604e-06,1.709508680437179e-05,4.5600568332019405e-06,8.113765025008703e-06,3.3113614968874125e-06,4.106659458971641e-06,1.9090278536814224e-05,3.666057557780427e-06,1.4285551782060584e-05
92.44305880006868,-3.791283440212381,10.139885965722003,3.401547840479188e-06,3.509301112626784e-06,5.1972535417502506e-05,2.366011009442164e-06,2.9448267320454906e-05,2.17734571191493e-06,3.782830249758997e-05,4.783740761357402e-06,3.622192711524812e-06,3.3549607624450047e-06,7.5803140666999585e-06,2.2927920675441876e-05,5.961391336397173e-06,1.593196663570104e-05
92.54203532508107,-1.793519880944646,10.545283571242424,3.374518873960906e-06,2.14803438843594e-06,7.48564861256797e-05,2.78260436520747e-06,3.106246114020194e-05,2.482997559391837e-06,7.073546905187391e-05,5.211537075043012e-06,4.123233716270927e-06,2.581747664419861e-06,2.1488628000086844e-05,2.1185406809219443e-05,9.954747511222615e-06,1.2911178008624084e-05
92.64411735004978,0.0983679146321359,4.654691798427811,3.36080563822838e-06,3.0736254353081287e-06,3.451139019674412e-05,2.3197399265770147e-06,1.2681101521044576e-05,5.381570055020418e-06,5.075911361333233e-05,4.1883520107283846e-06,6.194120946232273e-06,2.9209922292032084e-06,4.932963594062502e-05,6.885610394658068e-06,2.6156508779364316e-05,6.674173547934179e-06
92.7543491999386,5.384000041439355,-5.511271726388333,3.100547254265275e-05,2.317106774407425e-06,1.4459721689637313e-05,3.720875486962933e-06,3.495313726696823e-06,1.4750458825570554e-05,1.0834239808897115e-05,5.701567357730722e-06,4.318664403351667e-06,3.7999583746286793e-06,3.320882351972349e-05,5.401811028533222e-06,2.8613475445420232e-05,5.443038066155681e-06
92.84310337505303,16.644310539678457,-9.07411909580628,1.6678727489082628e-05,2.919638586687128e-06,2.464038301741131e-06,2.2303242104762463e-05,2.539485656198543e-06,3.575660243141716e-05,2.525542530987606e-06,1.513511394796278e-05,4.045459189382377e-06,1.688589005139138e-05,1.656432597942359e-05,7.937352469902166e-06,2.524183790037264e-05,5.936667310043678e-06
92.93541506875772,23.574143912577213,-9.554691506061452,2.2281864628926617e-06,4.554959772544589e-06,2.901989091172404e-06,4.364811451633972e-05,2.247944210296641e-06,3.097057949837829e-05,2.511349544135456e-06,6.786524154931805e-05,5.301210192119821e-06,3.31806963263668e-06,2.079324917198354e-05,6.657613645495587e-06,8.416024648648816e-06,6.464938955463903e-06
93.05010480002966,20.08035759495576,-9.338222078962584,2.75166910190162e-06,5.71968310452145e-06,3.747425219132261e-06,6.627876322999336e-05,3.0357677820216697e-06,2.164784202200568e-05,2.424960442640018e-06,7.643915115865706e-05,3.990951880542638e-06,3.563242870112815e-06,6.812262558407856e-06,1.3534723413282416e-05,4.695292194764881e-06,1.5716505664123716e-05
93.13164400000824,12.443834115989365,-7.027078967799602,2.7092404036451947e-06,5.023325087221212e-06,4.343401716661906e-06,4.6198634759070366e-05,1.3060231367747274e-05,1.1237699910446416e-05,2.2981899119465007e-06,6.195325269229833e-05,3.952524005480177e-06,4.2003402433547414e-06,4.223269217126639e-06,5.441010708779786e-05,2.660794268554016e-06,3.2650780805582876e-05
93.25992610002868,3.2700567634643845,-3.852341226808819,3.4699681913004038e-06,1.362671992364945e-05,5.016603452605792e-06,9.97348653374067e-06,1.9213501347749984e-05,3.1192446963415547e-06,3.422233056078004e-06,1.163393290426743e-05,1.9613023811600976e-05,4.1341071524113815e-06,5.809757930373402e-06,3.537982700753409e-05,4.070257540744608e-06,2.768132636944144e-05
93.33560630003922,-2.9869216351860715,0.4222482642478331,2.260431949345505e-06,1.5836678138667164e-05,3.596591346281205e-06,2.4123334374633184e-06,2.4143152600592128e-05,2.1575144311360683e-06,8.232250063780807e-06,4.887562142057571e-06,1.9725153810800696e-05,2.5617808791819524e-06,5.9912353521197745e-06,1.4994189332011876e-05,6.15605571942924e-06,7.932179429156454e-06
93.44430260005174,-3.34682488735992,9.257196244429682,3.2988253405999023e-06,7.310247538715437e-06,3.9061109347533975e-05,2.360207713752983e-06,2.7093915158319185e-05,2.0245362081256123e-06,5.175430236296812e-05,4.098581848749156e-06,5.226304708873323e-06,3.270114357481673e-06,1.2005138319874727e-05,2.0829680795489766e-05,5.65579118755391e-06,1.3425558747659849e-05
93.54338954994455,-3.3046703975319422,12.366065039401136,3.7204771224291073e-06,2.4511537173092188e-06,8.05677348396156e-05,2.062882226490066e-06,2.6506818536882226e-05,1.9191529608384205e-06,8.211664805787388e-05,3.800172557856596e-06,5.001122388372603e-06,2.5956298383200974e-06,1.2618417213025877e-05,1.5217803400318796e-05,8.710155616924902e-06,1.2087046320414905e-05
93.61882939061616,0.9061973349580232,3.7206470322830514,4.095517980578012e-06,2.6628217017094134e-06,5.2214192342026616e-05,2.150031339735933e-06,2.086777106171177e-05,5.471059103467325e-06,7.189003625772942e-05,4.289788367131778e-06,4.424756902718179e-06,2.96321684747164e-06,2.844431646572673e-05,8.90442853047188e-06,2.0325545848438063e-05,6.659964647694942e-06
93.77650430001086,4.1572615008276514,-6.501585270814759,1.860565858289551e-05,2.1482243620355297e-06,6.039389458713913e-06,2.9774633103134873e-06,3.2300283196234225e-06,1.284777381413877e-05,2.062230376482971e-05,3.73229662399954e-06,5.375291230185213e-06,5.620888987250504e-06,2.6590833703814556e-05,6.27537306961033e-06,1.669471469830943e-05,5.308155540981265e-06
93.8493812000379,14.127538019887425,-9.649406579779928,1.0551165294105095e-05,2.471239091453012e-06,3.29944328141549e-06,6.7308401268846845e-06,1.8056663199844698e-06,2.5083691781243316e-05,2.700211181645384e-06,5.8713472274585696e-06,3.642858862272253e-06,4.685633803382835e-06,1.2947196514707295e-05,5.2166769475798e-06,5.290102184427834e-06,4.7889925583929264e-06
93.9439586000517,21.76407299016192,-10.052066086802412,2.4449259982621607e-06,4.379472607676276e-06,2.0325951438472507e-06,3.0021011435863557e-05,1.873669366766564e-06,4.618063679198738e-05,2.279594951840266e-06,5.087619352039595e-05,3.716661126350627e-06,3.2927285435081123e-06,1.395375917701115e-05,6.101203654351206e-06,7.871932231311548e-06,6.042466239575262e-06
94.04210416256683,26.4844675042414,-9.026615682560738,2.5824618285757675e-06,5.062133769256571e-06,2.2657009411002354e-06,5.6960533616265836e-05,2.1313703584728924e-06,1.5549824186581924e-05,2.533321117880281e-06,8.17457584685642e-05,4.252629439160025e-06,3.2733312941224343e-06,6.91794985597534e-06,9.865255098878134e-06,5.402714547556016e-06,1.2131479644804099e-05
94.12754696875344,12.398495008490793,-6.182053177966747,3.544246847252294e-06,6.8554342977431484e-06,3.17873288201625e-06,5.138318535566361e-05,8.296061275572268e-06,1.4558698322250323e-05,2.322298112353241e-06,7.886537234671188e-05,4.425593897657693e-06,4.356033921437486e-06,4.910700182999072e-06,2.8807180169867263e-05,4.569552273846214e-06,2.4724466441835127e-05
94.2474913999904,4.504783092923704,-4.998479464119713,2.3850690191674574e-06,5.745898427132945e-06,4.227406909863311e-06,3.467117776354491e-05,9.162478038281707e-06,6.675368747254973e-06,2.6743341767894947e-06,4.790473732587261e-05,1.7422736133737507e-05,4.3875242493308325e-06,6.199053380905981e-06,5.195835595180168e-05,4.009732415551358e-06,2.9899031221076447e-05
94.30762066249736,-1.0131647632852037,1.4114602358913308,2.575128586778887e-06,1.0338602006596176e-05,4.4509017856922225e-06,6.439543316902472e-06,1.190509091949036e-05,3.1836888433986e-06,2.178800673253714e-06,5.12166625620397e-06,1.793560414406195e-05,3.1240973392836684e-06,5.640699946346736e-06,2.6012466835895164e-05,4.0571294687701844e-06,1.3230634220310459e-05
94.45670400001109,-3.72668304070421,8.3587823078961,5.590080553385644e-06,6.025363514406416e-06,6.617040961391149e-05,2.197505686553125e-06,2.92697172570664e-05,2.4476341148717425e-06,6.13013504526831e-05,3.1504154316022283e-06,3.719826808731034e-06,2.5870431774971137e-06,9.091969477311223e-06,9.627973057845833e-06,4.002297287024759e-06,8.419612789694845e-06
94.54859590006527,-2.90297864064315,10.538900460559073,4.1628515292323075e-06,2.724009913499262e-06,6.0316440042160516e-05,2.1332827892989947e-06,2.5515287692882055e-05,2.4300288558773802e-06,5.204831198897983e-05,3.4552412751756173e-06,4.4862856345075226e-06,3.1902374789933517e-06,2.1219224803419496e-05,1.386292215487433e-05,1.0951406850637636e-05,1.0606823854336376e-05
94.64798900007736,0.3560203956297374,5.745348287760993,3.547531718053299e-06,2.316958790197043e-06,4.1392915028007486e-05,2.24155141531596e-06,1.7961318003442162e-05,4.9239020618580174e-06,5.350385080322213e-05,4.969755464203768e-06,5.612075806802489e-06,3.2962549691794267e-06,3.822572361029959e-05,9.425471742824514e-06,2.088266759119473e-05,6.450681638672416e-06
94.75450890010688,2.2758336344018124,-0.8150490120566083,1.9040146788549693e-05,2.6683673848418063e-06,2.5509922325850086e-05,3.0436314415206178e-06,5.185361034653356e-06,1.25456148954357e-05,3.29462755083578e-05,4.73615754811557e-06,4.257389198215675e-06,4.066670111856833e-06,3.113663583176824e-05,5.447072399268819e-06,1.907814629815385e-05,5.267541189908247e-06
94.82662702503148,6.402049746626883,-7.693885192516337,2.455556938508032e-05,2.908818308416023e-06,3.0375729751054017e-06,4.317188178401254e-06,1.7903598846556403e-06,2.5059507906878256e-05,2.253718130400911e-06,5.887988180685373e-06,3.4380253477149137e-06,7.991229263768435e-06,2.49099076595848e-05,5.022753089242072e-06,1.3340325659902288e-05,7.321395265751946e-06
94.93880820006598,21.22898742061309,-9.58201312786123,2.3391279737869867e-06,3.4944994137835034e-06,1.755150588881337e-06,3.558202949341721e-05,2.282357579886623e-06,2.916642733399468e-05,2.0871882476209653e-06,4.861164520918158e-05,4.243628036968177e-06,2.762916532016211e-06,2.4378193212912394e-05,5.864083911170845e-06,9.585958545282851e-06,6.071401865206033e-06
95.02755301247817,25.94780650317085,-9.153412460058846,2.478079148798473e-06,4.255716257878873e-06,2.8506684025500124e-06,6.58749667714868e-05,2.4268319405996502e-06,2.278685930185357e-05,2.349748866053976e-06,8.379924282451369e-05,4.647927239967133e-06,2.8465910379512125e-06,1.4029996054968024e-05,1.0350382934386334e-05,9.429101510627233e-06,1.137447639809066e-05
95.15658279997297,14.429626435578683,-7.323008582795181,3.033161777181026e-06,5.387233517948094e-06,3.2129899312555367e-06,6.765295764603014e-05,5.935666769675637e-06,1.7872305889154055e-05,2.3206588044731854e-06,7.451994638695846e-05,3.4328058357794093e-06,4.952901914137641e-06,4.124339677652814e-06,3.919585167971712e-05,2.934697259398345e-06,3.9469796459632666e-05
95.24226130009627,5.032810026298588,-4.951101971652869,2.5773624598189347e-06,8.238719752217358e-06,4.329382257549693e-06,5.0170164176518255e-05,1.089349352303901e-05,8.350493040282061e-06,2.3710642100496154e-06,3.3256741297187745e-05,1.1221750249598202e-05,1.2109903654163354e-05,4.07318529611888e-06,7.18831016023841e-05,2.93953654916799e-06,3.80047632115062e-05
95.34500900632702,0.1696096698907023,-1.888951559981285,2.024168393748053e-06,9.485250415353892e-06,3.002949300635893e-06,3.0922166774729528e-06,1.811247644878395e-05,2.625319020306084e-06,2.8259751412226113e-06,4.304688298783788e-06,2.6570271823659777e-05,4.632242152251501e-06,6.04257724094978e-06,2.5484661235857415e-05,4.699316798254138e-06,1.1619809282754697e-05
95.44214960001408,-2.068160760747202,5.65027609717212,2.9030737674995318e-06,3.4133667172204967e-06,2.538579429434878e-05,2.078223576393077e-06,1.874694834127375e-05,1.920323849360573e-06,2.750629307085004e-05,4.59622947575704e-06,4.701270080185012e-06,3.099253828469277e-06,6.441933794614304e-06,1.903571700075777e-05,2.8080799397177186e-06,8.609642461256809e-06
95.51372050005013,-3.497982525699398,10.535234235762085,4.16281295119799e-06,3.2329757945194017e-06,5.7155457050524656e-05,2.4485941734627325e-06,1.7002956248185098e-05,1.879189878383009e-06,4.77609250526144e-05,4.522165560245785e-06,3.0705811061382868e-06,3.300357441003388e-06,1.2525111124769876e-05,1.618635051892482e-05,5.060071281931482e-06,9.583835936596372e-06
95.65915980003774,-0.5067411173032474,8.978826784539514,3.923734471972497e-06,2.4527076162428366e-06,4.868469248441272e-05,1.8790064684040638e-06,2.5214998291877782e-05,7.10046214978534e-06,6.286217434365347e-05,4.184890910852618e-06,4.904249265243717e-06,2.8364588718690485e-06,2.0784833293517003e-05,6.522168166311337e-06,1.860217664904821e-05,6.070876220707146e-06
95.7200411000522,1.974532607471872,-2.8671462749351666,4.7780372155672044e-06,2.4847624433804213e-06,3.118656257562685e-05,1.845057076718036e-06,9.479741683952177e-06,7.55938694695411e-06,4.30520749716816e-05,3.74390606617083e-06,6.533829996559269e-06,2.9270189373716387e-06,5.146412447018526e-05,5.543967866162806e-06,3.158807805422234e-05,5.245519883126938e-06
95.8490433000261,6.912031327309468,-8.702196288146228,1.615508306550055e-05,2.366657525677927e-06,2.6480542273208173e-06,2.5109390450598272e-06,1.840200138723374e-06,1.897350153227741e-05,3.43104582809318e-06,3.6644276077534183e-06,3.724528585168361e-06,2.829495671784719e-06,2.2044059086491618e-05,6.851056590624725e-06,1.6646509030145112e-05,4.677374121380916e-06
95.94770806247834,16.991917406683672,-9.840908913747612,2.5799147861118864e-06,3.826000072672492e-06,2.158163581041557e-06,2.9797318025882155e-05,1.7894257523150124e-06,2.572489570285843e-05,2.061673507221845e-06,4.309998461755453e-05,4.4470153662949225e-06,2.642087116902366e-06,2.080995151575704e-05,5.558805495832005e-06,1.111858222372226e-05,6.7858702427657465e-06
96.02665454999078,22.650412324026817,-9.781930145965353,2.319118198712976e-06,4.836094371528494e-06,2.0993675255053822e-06,4.586027406580415e-05,1.965346510339109e-06,2.7139946825301826e-05,2.2883713149162515e-06,7.046712883943912e-05,4.347822375777334e-06,2.9457290631156176e-06,1.4924584719305916e-05,8.604660967778105e-06,1.0878132190913907e-05,1.305291787792588e-05
96.1717652187217,15.850108799614523,-8.196933232615295,2.460535761574323e-06,5.533324610739517e-06,3.6776726446378224e-06,5.94992886893508e-05,5.697781935914313e-06,1.505844687956601e-05,2.651784888229993e-06,7.897345531932205e-05,4.5041234890455185e-06,4.039431686598074e-06,3.7470802563501884e-06,3.1631930236787417e-05,2.639948115760587e-06,3.058847415250208e-05
96.24156540003604,5.032319380664268,-4.571376975510403,2.139128187963574e-06,7.063145261787415e-06,5.837556329155608e-06,3.545708914821811e-05,1.584503870074675e-05,6.540825220646889e-06,2.7366835084734947e-06,5.012220403777231e-05,4.42941752308114e-06,3.742496489824479e-06,3.919411906031756e-06,5.070328396929735e-05,2.6987866180770777e-06,3.1552469271456565e-05
96.35266948747449,-1.5138147405838076,-0.1561493744313233,2.5209528347320053e-06,1.6214860621278216e-05,4.900848877416664e-06,3.909151752239429e-06,2.260609551427792e-05,2.4197352625989494e-06,3.3409909633496376e-06,4.696823976158003e-06,2.3841302689142025e-05,2.932283919527763e-06,4.633579085285444e-06,1.2411975622443727e-05,5.0640385831643735e-06,8.930314458324625e-06
96.42636111250611,-5.070984431714155,7.519786687687429,3.0297167890005084e-06,3.6904348676256416e-06,4.077574764004405e-05,2.532897735446204e-06,2.4648660920651427e-05,1.7895417810627751e-06,4.542138948413506e-05,5.390380350081354e-06,5.333148003648515e-06,3.4221639225518884e-06,3.464928483985305e-06,1.4073247150039232e-05,4.293702723397173e-06,9.091354746316323e-06
96.5411402626196,-3.857144489298421,13.61792442757498,3.3388013095769807e-06,5.411896095061483e-06,7.701170156192189e-05,2.260098302428311e-06,2.692485314834272e-05,2.1009669519599123e-06,7.353421218401328e-05,3.1500189661567395e-06,4.572676110917472e-06,2.538343757796944e-06,1.8593254156063125e-05,1.5030690380605982e-05,5.405068765478846e-06,1.222153683770598e-05
96.62735500000416,-0.6036418404252095,7.544238037646202,3.5336822263411373e-06,2.655394990927866e-06,6.242150093218255e-05,2.464997786022118e-06,2.594726103112751e-05,2.0840452564598022e-06,6.430476893063101e-05,4.220433567183856e-06,4.45979416286839e-06,2.957060737700044e-06,1.7642083368420055e-05,1.315047144144189e-05,7.230192223534197e-06,1.1562746524872622e-05
96.72155658755219,1.4826597986528895,-1.7883202341432596,1.4612027342282635e-05,2.5323630208942413e-06,5.030262562531097e-05,3.0646455792082775e-06,1.967424300575876e-05,4.66403013621094e-06,4.8232227784861836e-05,5.100777238768331e-06,5.562046018606865e-06,2.829624654331473e-06,4.6789944297903166e-05,5.488844464455739e-06,3.204966862424388e-05,6.439705025458147e-06
96.8518458812614,5.644359298110125,-7.126688638181401,2.739046792801948e-05,2.866108034555891e-06,2.5317206443298005e-06,2.7137124581100965e-06,2.0553325502206184e-06,1.8196563018337e-05,2.397848069807731e-06,4.876949125750862e-06,4.5790107155053125e-06,4.4156071868042656e-06,3.2231284547953664e-05,4.0970688586227314e-06,1.4830625254675965e-05,4.829338105822873e-06
96.953148300061,17.173050935684827,-10.40838016832883,4.171164821273664e-06,3.058732373571748e-06,2.056000800941323e-06,2.858137836402152e-05,1.9307023411848284e-06,4.009543107875784e-05,2.4155628645970208e-06,4.395218591855322e-05,3.514301123678487e-06,4.655405388625867e-06,1.712999269063675e-05,5.098315376069157e-06,8.023424553644337e-06,5.079595939905844e-06
97.0623303000466,23.61215738080432,-10.488670672290716,2.2666776197271363e-06,5.4988347193356275e-06,2.77388501665999e-06,5.0271431352735323e-05,2.236361875104125e-06,2.5759990251585397e-05,2.2567989294045755e-06,7.062403358124928e-05,3.5638698579944558e-06,3.420719058958365e-06,1.477453589197836e-05,1.0577295005528927e-05,4.184414974161734e-06,1.594386584095171e-05
97.15051962505095,15.807316009320736,-8.076959330546893,3.1078558178145175e-06,4.593663302386269e-06,3.9638925575309044e-06,5.899716156539452e-05,1.052431171716465e-05,1.80789955674667e-05,2.543116370625174e-06,6.222736104219157e-05,3.89041105860183e-06,4.061853913032304e-06,8.342263635438071e-06,2.9159837144607097e-05,4.278498615190222e-06,3.086486451529507e-05
97.25544510001782,8.340382687381254,-4.046780582080201,3.008733260571485e-06,1.0399987572785515e-05,4.8958597795802e-06,2.5604076827137843e-05,1.2657805851868031e-05,7.523407401208069e-06,2.976691661477333e-06,4.358541577691164e-05,5.803674587828848e-06,7.38499447537828e-06,4.859946077860458e-06,5.3703302222867525e-05,3.805612891885606e-06,3.817181964420981e-05
97.3417477000039,2.126056156242763,-2.351237780339437,2.7343784554236303e-06,1.3830091394291067e-05,4.366881085202949e-06,5.8416776525650855e-06,2.50072154625885e-05,3.738797097549584e-06,3.419584102071894e-06,6.943667308439008e-06,4.107759110222928e-05,7.3588122171448125e-06,6.109291814908754e-06,4.002342805980664e-05,6.142552275895185e-06,1.4277655815119776e-05
97.40596022183308,-1.370630112982647,5.559045864152218,3.2511606450553127e-06,1.246744474904151e-05,1.8730664030053483e-05,3.094027354669486e-06,2.9237305690201815e-05,2.1271578386965536e-06,2.9367203256594883e-05,5.220415490615448e-06,4.083646048221231e-05,3.0887609390009307e-06,6.092396061643419e-06,1.3626733686178676e-05,5.416547286082144e-06,6.907198890893338e-06
97.55524160002824,-4.223253278226525,14.484249972061932,3.2844406028595224e-06,4.9444240173716194e-06,8.612364534752806e-05,2.2463594596129463e-06,2.1866374584998836e-05,2.116551371638045e-06,7.052880296399731e-05,4.621193182754535e-06,3.746243976527133e-06,2.8591077576408045e-06,2.2776207525520013e-05,1.6842513526722064e-05,6.012222539351873e-06,9.67540786555835e-06
97.61474430013914,-1.5295990440851748,10.4919805776744,3.4553556144151225e-06,2.3860251494603643e-06,7.745035460938355e-05,2.104215067449661e-06,1.6363790913962486e-05,2.381207978501629e-06,7.198771906833301e-05,5.036441004922993e-06,4.072649118765276e-06,3.0671277798454243e-06,1.2423423761458132e-05,2.1165850626003725e-05,7.176184719615577e-06,1.3282300302873484e-05
97.74942757503597,0.8644653114479213,2.9604588736013264,1.438096877668619e-05,3.001740124973959e-06,5.03285974627347e-05,2.719319731075262e-06,1.4026135259143711e-05,9.023415631240396e-06,6.27376858982273e-05,5.031941693567312e-06,6.873144269669938e-06,2.569649025465251e-06,5.043305684151115e-05,7.649261825100875e-06,2.693678480863385e-05,7.162261346452498e-06
97.83942035009386,4.957575378511046,-5.846365553493818,2.413868558044198e-05,2.489005503086971e-06,2.097441394063982e-05,3.5362037024565205e-06,4.312690020583828e-06,1.2870134847663552e-05,1.3310749474021443e-05,4.950627611246629e-06,6.420041321513527e-06,3.2358406756690686e-06,4.1524860268235355e-05,5.639892139287094e-06,2.492544057022966e-05,5.196152094018057e-06
97.93407479999587,18.584837175460557,-10.52773235205848,1.3558005239309442e-05,4.2606162737425146e-06,2.5495365993038928e-06,2.3944528941685905e-05,2.048295430397059e-06,3.062488266908986e-05,2.2798887956924605e-06,2.0111887479840652e-05,4.3199317718913405e-06,8.132652717111225e-06,2.455396851213141e-05,6.168289985948036e-06,1.6145913756924067e-05,5.1245592321564635e-06
98.06042740005068,26.73207278724736,-10.376509451756515,2.425720972159114e-06,3.915837289135006e-06,1.868368872711256e-06,6.212038916444588e-05,2.5115256235501516e-06,2.8997422352337132e-05,1.8389935312878587e-06,8.062214441468544e-05,4.702582481626739e-06,2.8836468383656354e-06,2.0071999236648548e-05,9.485556959489958e-06,8.998965398218121e-06,1.5050066454245955e-05
98.14519289997406,18.108619373543227,-7.858424712829797,2.806671919886159e-06,6.188512905932269e-06,2.5012545743742876e-06,5.029808025803435e-05,4.811113769716208e-06,3.0035637106950228e-05,2.3868352644788563e-06,8.462449348475388e-05,4.4280116118104e-06,4.0341866728892035e-06,1.6517277297468934e-05,2.623184990524628e-05,6.261877049852484e-06,2.895946556652307e-05
98.2496316001052,7.377439570004665,-4.811474621234737,3.3550328123598006e-06,6.814327497367627e-06,5.623898841754106e-06,4.522103342707711e-05,5.738638548844353e-06,1.1663434198405535e-05,2.745863882749568e-06,5.057826711729287e-05,5.757095778913957e-06,4.471966060314388e-06,3.900080024399579e-06,5.330397702899913e-05,2.9061012539689555e-06,3.2676052613786026e-05
98.34647689998383,1.3116868028759125,-3.47589711291007,2.7567322091555013e-06,1.0381656281437873e-05,4.659370718289824e-06,5.0628350598326786e-06,9.304679419428486e-06,1.2628148085386849e-05,3.4878117716708445e-06,6.911324451726551e-06,3.257444570987913e-05,4.409856774699445e-06,5.720254545752622e-06,3.695977372616857e-05,3.1991447398034906e-06,1.951478332621173e-05
98.43320680002216,-3.50993964427278,5.366780412972536,2.580848195161425e-06,6.665494369356502e-06,1.1426769989031416e-05,2.303136885156701e-06,1.5093975019850346e-05,2.1992619112222067e-06,3.0315163909306477e-05,7.206769453146176e-06,4.08594244781907e-05,2.9576006084796057e-06,5.936137157152944e-06,1.2724225731480708e-05,4.931856363600033e-06,8.926896949650148e-06
98.540163481317,-3.1485799596083703,11.538680453681476,3.591512047151029e-06,4.002502832770349e-06,4.8143685647553385e-05,2.353925074276838e-06,2.6064728577320064e-05,2.188692895163482e-06,4.7561501579847915e-05,5.328325842696853e-06,3.64549487605209e-06,2.7410909414273387e-06,1.0115089402551406e-05,1.3345967904793696e-05,5.363054911355423e-06,1.1660779716322702e-05
98.6449596999446,-0.7499565991538355,9.438800985648292,4.286889463587007e-06,2.2497931969209352e-06,6.456421224529693e-05,2.088057686047457e-06,1.6247601315897922e-05,1.8926880324890577e-06,5.9025370805466354e-05,4.828632393765368e-06,4.669193124415764e-06,3.73686397424848e-06,1.7679515136614183e-05,1.280708204235549e-05,8.664836214077834e-06,1.0428931654004263e-05
98.74719919991912,2.7294596455750977,-1.9655382660383474,1.6831069222975207e-05,2.1150272826743294e-06,3.29798557012665e-05,2.4107878757386776e-06,8.798772203132763e-06,8.12391455973252e-06,3.990062146710961e-05,5.827871122039021e-06,5.381702576767789e-06,3.922139301851675e-06,4.213589530598178e-05,1.1947426764117766e-05,2.1266744082854704e-05,7.114645448477753e-06
98.82712950004498,7.419812681498501,-7.296989997915982,3.4191819719320964e-05,3.09824219605513e-06,4.360714065771118e-06,3.6754566667569543e-06,2.1801885880749595e-06,2.0652637748882395e-05,6.19230010327558e-06,5.722411067590235e-06,5.2800321604637175e-06,1.8544009554297367e-05,4.066207934376167e-05,7.078713999775635e-06,2.177863402383249e-05,5.217421620395108e-06
98.92024489998585,17.693518233231995,-9.870057139614314,1.3851852494106787e-05,3.2201911774117683e-06,1.9171249093787917e-06,1.4772927617591521e-05,2.3033463387359088e-06,2.7214749343837676e-05,2.5174780589073263e-06,1.4229101817741449e-05,3.8707534326556475e-06,1.676611554082331e-05,1.1178908437689264e-05,5.711771684962628e-06,5.30979614543203e-06,5.354990491780092e-06
99.06886460003442,27.205869130208363,-8.386173165165342,2.6253342366183025e-06,6.018840361062967e-06,2.38387316801023e-06,6.658792476144638e-05,2.4351793180769256e-06,2.2777193471833056e-05,2.2347110985822778e-06,7.130950693624936e-05,3.206292562100183e-06,2.8168677358994063e-06,1.718712826518034e-05,1.2244350771537879e-05,7.62082405091931e-06,1.1901145193926142e-05
99.13180690002628,17.66215705270566,-6.682596146205412,2.230961507593659e-06,6.266236102278304e-06,3.492380554672395e-06,8.37441728105119e-05,3.2418764379212222e-06,1.8585061657225928e-05,2.524916839039124e-06,8.996549000618971e-05,4.092962132709411e-06,3.0316518984195247e-06,6.026901353587314e-06,2.0988944197164803e-05,3.518062103731761e-06,2.290801661217849e-05
99.2531603234238,7.160947743539924,-5.586729980923417,3.9125142864301595e-06,8.117160068673782e-06,5.916812972213255e-06,8.484628991089837e-05,1.9299806013268643e-05,2.054827770033808e-05,2.4187402402029725e-06,8.67993163992408e-05,6.266945001766586e-06,4.988496507680313e-06,5.6011801322776525e-06,4.4510428924935086e-05,2.7018827850485587e-06,2.8031529458327736e-05
99.35239030001684,0.355962848444403,-3.1333807185731617,3.1984847636031106e-06,7.888606772441387e-06,4.097798116370093e-06,2.555774884617489e-06,2.742188709995692e-05,2.7512262781645144e-06,3.364176460386829e-06,4.81922458263803e-06,1.8700151200460163e-05,3.796377825424525e-06,5.824997499540416e-06,1.8704375720492915e-05,4.330999127842421e-06,1.863311997239681e-05
99.44092210009694,-2.660001830205424,1.485581546892775,3.1229894383369675e-06,2.958661103341687e-06,1.0715517379470922e-05,2.438228966878969e-06,2.5629930344753328e-05,2.250736305026521e-06,1.6975703064525648e-05,5.781155057323926e-06,1.2838931992531134e-05,3.097185428550236e-06,4.58950037873542e-06,7.579500795369709e-06,4.03328930777357e-06,6.988893204180893e-06
99.53927162510809,-4.779107816465801,10.618261039050424,3.5015546950393893e-06,2.411837251945008e-06,6.46891530641777e-05,2.0564890646543552e-06,2.223292296176632e-05,2.263993055097742e-06,4.716262639589015e-05,4.8898436513897065e-06,5.469433142916222e-06,3.132202153324418e-06,9.8831502481644e-06,8.58550578305881e-06,6.109836996929142e-06,6.820495843122717e-06
99.61713260004764,-0.7469710256876319,8.07925876930631,3.6080895509316433e-06,2.346885627551871e-06,6.690628247233109e-05,2.3161349192840003e-06,2.0844284091814257e-05,2.5054646826124247e-06,5.009752925289797e-05,4.730743582051493e-06,4.26638360782256e-06,2.612328379638945e-06,1.3596962065175548e-05,1.436173049517614e-05,7.242204175834843e-06,8.988872581061647e-06
99.74999780009966,1.4011435080319952,-0.3293346289607974,2.7465848469438047e-06,2.540573587408103e-06,3.907700243225023e-05,2.4159192456645544e-06,1.485806032283496e-05,4.843740542990624e-06,4.471814574485319e-05,4.453102244563564e-06,4.810064331425895e-06,4.188536696019367e-06,4.092286221024749e-05,4.862448082802214e-06,2.42630678458584e-05,5.806200981048604e-06
99.85383938753512,5.16688993448043,-6.523997222224239,1.661203200447828e-05,3.258271796284566e-06,1.300638632228386e-05,3.2628655690634225e-06,2.720104602976292e-06,2.1845686486420496e-05,1.8109279678962483e-05,5.015732925030259e-06,3.764549853838425e-06,9.50640292837556e-06,3.5022194275771974e-05,5.395845708464505e-06,1.489128041796124e-05,6.192035569905075e-06
99.93808313750196,13.370161800150976,-9.528624154205046,1.0011078611616583e-05,3.533576742844333e-06,2.369966480206964e-06,1.8131368702471392e-05,2.079722647649937e-06,3.5183332884982984e-05,3.174607963466191e-06,1.8217129478707573e-05,3.0087204780935315e-06,7.120474460319899e-06,6.581077653421709e-06,5.372971369739156e-06,3.5981502221403976e-06,5.849250052358157e-06
100.04762328753714,23.486894907424453,-8.59801451666342,3.2259667974603894e-06,3.806085076297342e-06,2.501294729067565e-06,3.8363688204572606e-05,2.9733158716568783e-06,2.753424044903948e-05,3.1879389780195293e-06,4.1843669368237954e-05,3.928613085383852e-06,3.497010167518845e-06,1.745510349629222e-05,9.768741998318907e-06,9.56072281961625e-06,1.0109920016208066e-05
100.11152293754276,21.09064606715878,-8.423476492553267,3.399123599557446e-06,4.273540983792777e-06,3.5385430326488615e-06,4.3718254069177776e-05,3.244911978033888e-06,2.8431804159345903e-05,3.0148449417652348e-06,6.253639963337825e-05,4.225185970461488e-06,3.640789630344306e-06,7.179328646825086e-06,2.1054882640697847e-05,5.655418876966918e-06,2.1535532636654644e-05
100.23988344374811,9.031808771224654,-5.397798010839175,3.2992995806272343e-06,6.255686222102696e-06,3.7303156485129688e-06,4.266562970984012e-05,7.588290641789424e-06,1.05401040811331e-05,2.4961221201554266e-06,5.647120644520807e-05,4.341907018443881e-06,5.511746179280675e-06,4.613442211632595e-06,5.3472038106475934e-05,2.52112446012421e-06,3.708870072625231e-05
100.35346660006326,4.21203956595965,-4.2294481916992925,2.430594298335065e-06,9.229130541339544e-06,3.375045696336391e-06,6.85258643080414e-06,2.2470161688635584e-05,2.567870485754054e-06,2.892878311521743e-06,7.030387403909225e-06,3.954428034665087e-05,3.747580653261362e-06,1.00704780762834e-05,2.93443086844228e-05,5.120797187242744e-06,2.2960254132646483e-05
100.44688129995484,-1.4562157325975038,6.64848693408526,2.996749210399971e-06,9.6936702065023e-06,3.273921410594801e-05,2.3022710106412146e-06,2.4539386911032703e-05,2.0097663360236306e-06,2.975120248995172e-05,5.750114765001705e-06,2.546463345379993e-05,3.2915301270822044e-06,7.170789139572186e-06,1.003011742847565e-05,5.425549434053252e-06,5.275603472012055e-06
100.52215280005476,-4.1302597130402585,14.747772588094282,4.2656808492135615e-06,8.069062343447191e-06,9.442059529882416e-05,2.5700867917619606e-06,2.943200290143863e-05,2.3133714639769908e-06,5.751853732192145e-05,5.196820260361522e-06,1.3439587106779411e-05,2.841356999600112e-06,7.230612375139738e-06,9.238943082353634e-06,5.4771527822388555e-06,6.555146215554685e-06
100.61845370009542,-1.7481036664255851,13.461517745920922,4.995231719010807e-06,2.9097779085089435e-06,8.494883967248274e-05,2.268047618120558e-06,2.473829680575328e-05,2.1282995668960117e-06,8.198164849785759e-05,4.328357285266419e-06,4.9992116119579005e-06,2.70054529735459e-06,1.4927774202174002e-05,2.486092446806073e-05,6.120649395520822e-06,1.1656749432652089e-05
100.78168000007281,1.7264876873543555,1.109797096578248,1.795119864202164e-05,2.77990119368053e-06,3.6057064924521146e-05,2.66574775388017e-06,9.084779305313045e-06,1.1987156090148286e-05,4.05901760883235e-05,4.765755726429764e-06,4.244453703180643e-06,3.01312925665121e-06,4.1425821057456755e-05,5.578392547132859e-06,3.157418390785588e-05,6.168129509697946e-06
100.83308190008393,4.622237235421702,-5.510864346426027,3.0195633686867097e-05,2.5047423919384147e-06,1.987521124816067e-05,3.1302112213214258e-06,5.786915194577392e-06,1.5666658954731498e-05,3.1657254772489156e-05,5.205084641815773e-06,4.2710586290032715e-06,5.94646600992722e-06,3.204180361684172e-05,6.113125910124104e-06,2.348714578378144e-05,6.055047939405679e-06
100.95114229997853,13.79032803610918,-10.00239064472302,1.0780941200417336e-05,2.7208495664961494e-06,2.346542180821054e-06,2.6203144797476153e-05,2.1764345682345155e-06,2.279243796046293e-05,2.464230421887728e-06,1.9467693099046996e-05,4.27228945163342e-06,1.4366921960821917e-05,1.420851863796835e-05,5.097900804358766e-06,6.0852602006881715e-06,6.6260423008993765e-06
101.04428726260085,25.05235115627055,-9.377843066169344,2.226052289869405e-06,3.083309628174926e-06,2.167983581481716e-06,4.427102538235869e-05,2.4466525210742486e-06,2.7048749092650684e-05,2.4362035115142894e-06,5.994839823954815e-05,4.162554355619278e-06,2.694217025767954e-06,2.9510421252252838e-05,7.781105505846475e-06,1.0135848875617045e-05,9.461695443949e-06
101.15330280008493,14.159782476617892,-7.798135142487154,3.716166263449828e-06,6.281448106902853e-06,3.481281589581203e-06,7.351759509678275e-05,2.9947183517978424e-06,2.0298906696044774e-05,2.6786266651068635e-06,9.131038266780369e-05,3.4195018986794538e-06,3.64981194301264e-06,1.4464871998230534e-05,2.0769385698883755e-05,9.068851509891296e-06,2.030528768129941e-05
101.24569849384716,7.881054610999042,-4.9827428997027745,2.6134301325468892e-06,6.383670706577633e-06,5.04880353655924e-06,4.361662090456387e-05,9.600311205343342e-06,1.1248781259983034e-05,2.6238103147503197e-06,4.0704048504164046e-05,5.5230214343655006e-06,4.610438960292115e-06,4.342196811598074e-06,4.8246946133174396e-05,3.4387134199225716e-06,2.4416348256765085e-05
101.3404813625384,1.8730542438478688,-2.621819227883159,1.956650678569569e-06,8.829271192385154e-06,5.149677154624072e-06,7.497390491892622e-06,1.968019585277233e-05,2.8160618286038435e-06,2.982025489703254e-06,6.182136390909167e-06,2.809225416510846e-05,4.424060631129355e-06,8.054006653547751e-06,3.565691793772165e-05,5.751862158435422e-06,1.897289827670097e-05
101.45507990627084,-1.8691535869099984,5.66795495246077,3.0633896925988612e-06,1.3529817069754129e-05,2.8964590379411376e-05,2.179484739562332e-06,2.871768680648069e-05,1.846632751161797e-06,5.481089515297453e-05,5.692314780633331e-06,1.7925337784929078e-05,3.0262594857146993e-06,4.427075542615217e-06,1.2206997040562756e-05,4.6013132329739134e-06,6.227219615489128e-06
101.53817103750771,-4.770121484515985,10.383900852839648,3.6771288286725826e-06,6.656159721717865e-06,5.431775294815911e-05,2.4278100913581646e-06,3.0543872817268956e-05,1.9135921954942792e-06,6.550409106027355e-05,5.0897965781900005e-06,7.70063503816899e-06,3.4783533215250884e-06,9.657582490818802e-06,1.4179258626287059e-05,5.345560874136312e-06,7.727090949012086e-06
101.63582030002726,-1.4447510505840375,8.851412835132345,3.360377496563923e-06,3.1572386274270677e-06,6.053132154419018e-05,2.1395637407075105e-06,2.4674476257965832e-05,2.162156773355028e-06,6.758964616854015e-05,5.067567826908539e-06,4.248367465839746e-06,3.375300459030808e-06,1.7679885544503603e-05,2.1264282263553397e-05,7.529305918734536e-06,9.561449134103971e-06
101.74488476256374,2.1562655821331864,-0.9147592827992428,1.6702580512138197e-05,2.472676840186364e-06,3.4675761190672664e-05,2.537656320695911e-06,1.062440459354768e-05,8.52611164567114e-06,3.949166068624289e-05,5.082315141487832e-06,5.2585727873563785e-06,3.835702699403613e-06,4.721798294528461e-05,6.057599750943616e-06,2.6938887177294037e-05,7.196840266365867e-06
101.82093238126254,6.532217270036539,-6.421199281344231,2.9571271100612762e-05,2.3693407006608917e-06,2.0923166470396535e-05,2.749330404673992e-06,3.2349278753372095e-06,1.1075225059857171e-05,4.455351863615309e-06,5.432272450461004e-06,5.362789065214147e-06,1.046378586229922e-05,3.331853715228863e-05,5.093218104621425e-06,1.9903060775260518e-05,6.899649096724003e-06
101.9409046000219,14.890969370037913,-9.612106250722768,2.0865472488893772e-05,2.746757692001196e-06,2.1584647616192846e-06,2.254628719628365e-05,2.018325549676149e-06,3.973410799982601e-05,2.544053199281448e-06,2.330648937811858e-05,4.012372749604274e-06,1.4366352801754202e-05,1.6630738514249085e-05,7.3649900034498025e-06,9.207386890290345e-06,5.817095021043194e-06
102.0442231000634,23.43889689533293,-9.991987509597504,1.3489230656509467e-05,4.634156942906852e-06,1.995523847926905e-06,6.069341995303518e-05,2.0515059240354408e-06,3.723411520167155e-05,2.644484525036189e-06,6.396395679971271e-05,4.570363785191985e-06,4.840574096241339e-06,2.178240651099637e-05,7.39845135124538e-06,9.14762457208918e-06,7.016439582140367e-06
102.1419924281654,14.497342058623271,-7.761890311632948,4.326225025731583e-06,6.949779827849913e-06,3.0562166269583378e-06,6.892087793151603e-05,4.1906549518902555e-06,2.4463219477842645e-05,2.106735711563055e-06,8.705856230604227e-05,3.934943765079415e-06,3.608993383041755e-06,6.5580526785331806e-06,1.7364714170518227e-05,4.210902170092356e-06,1.7342816991048345e-05
102.2363261624705,7.692829337273642,-4.849474313336437,3.762837101244281e-06,9.00833596046668e-06,5.392704788216952e-06,5.037866224820319e-05,1.3213300067563216e-05,1.479355584186432e-05,2.681222740664343e-06,4.31453005338898e-05,5.127304727451445e-06,5.671503331768152e-06,4.267326133395983e-06,4.043740666394305e-05,2.847407395717373e-06,3.0110700693266668e-05
102.32377342495602,1.4231664789220866,-3.191955529758572,2.5068668266510543e-06,9.937602886497114e-06,4.33390418119098e-06,1.3102323483759716e-05,2.4524124486741276e-05,3.2748675855826246e-06,3.2234922058370355e-06,1.0463703303207862e-05,2.9882838488900548e-05,4.061426252717819e-06,7.142811846086055e-06,3.597429698473962e-05,5.208506849601698e-06,2.15809670386682e-05
102.46944993746,-3.695329936410575,6.538341808427437,2.7074763664650803e-06,9.62298059020705e-06,2.021012652900197e-05,2.4557605748679167e-06,2.9366704347028384e-05,2.1216433434483747e-06,2.935981861728165e-05,4.61026486395651e-06,2.355090134779077e-05,6.335959690287806e-06,6.2472819205006e-06,8.063398340267244e-06,4.758133229052727e-06,5.511871890790031e-06
102.5490231999429,-3.731133843228149,11.886083335609127,3.336164409313008e-06,5.599530606382465e-06,5.1043243596175016e-05,2.38354938286014e-06,2.812606874590867e-05,2.163694497716594e-06,5.887684479252262e-05,5.40274050564587e-06,3.748716266813945e-06,3.867892128805501e-06,8.8049642077686e-06,1.387594944344082e-05,4.665173859241893e-06,7.234068203290648e-06
102.67210789991076,-2.1340686550234427,7.809379142606322,3.819331411511436e-06,2.28865902193301e-06,3.824095650382447e-05,2.2282724729129647e-06,1.261860341785187e-05,3.580568052863604e-06,7.782604173130698e-05,4.452327816995546e-06,4.911961222045369e-06,3.907855127154943e-06,3.3628896998671105e-05,8.871246838281515e-06,1.629100023880421e-05,8.390879202760091e-06
102.75313510000706,1.7828393876113702,-0.0016264566439736505,1.8637529451735517e-05,1.7922669743703605e-06,2.412435054434994e-05,3.2050487848013547e-06,5.469322000501061e-06,9.39192304337689e-06,4.9302865874459464e-05,4.408929816675413e-06,4.805970623630646e-06,4.440386616192905e-06,3.544039017001457e-05,7.634513063506573e-06,2.60874619636437e-05,7.269620136209639e-06
102.8497602000134,7.05033531740373,-7.036807251289482,3.2578052994476895e-05,2.517341347285125e-06,3.11801504313046e-06,3.4714053423399592e-06,2.58982990790947e-06,2.235279435473565e-05,2.441600036198485e-06,6.86227578759267e-06,4.001345167508573e-06,1.786735650083942e-05,1.447357137257996e-05,5.699244130551327e-06,9.28654807451819e-06,6.7449895656737215e-06
102.97252439992735,17.79812929136255,-9.696249530524033,2.8242199807614894e-06,4.679068306322106e-06,2.364303057587364e-06,4.114452803775805e-05,1.5461705092442476e-06,5.077561669061428e-05,1.930759062404884e-06,5.4552605325718704e-05,4.148301612387776e-06,3.535095294840413e-06,1.5699471123337255e-05,6.5876893321873056e-06,7.138077133868328e-06,8.282711297742335e-06
103.03235330001915,23.41804895382404,-9.701887636417313,4.161170835586175e-06,4.0955091433929714e-06,2.1990218763762963e-06,4.3304338319935215e-05,1.930251986396097e-06,3.714390374306223e-05,2.479686065311148e-06,7.2968929659654e-05,3.581034846485354e-06,3.389461083716088e-06,1.3636781268338272e-05,9.538467358516998e-06,6.445347260612723e-06,1.5989872647457813e-05
103.14193880005041,14.933686790016617,-7.245129935859196,4.089514974866582e-06,5.473971842061544e-06,3.2501648324153114e-06,5.6483308448144814e-05,2.9798078847136236e-06,2.6632384547737842e-05,2.9997347722336724e-06,8.816455520284223e-05,4.246352130688101e-06,4.50523919665001e-06,9.162319042859604e-06,3.115253217107575e-05,6.968456024464664e-06,2.40671706174125e-05
103.25529578136047,8.610474641133344,-5.082086141512763,3.3044920743903464e-06,6.772175733608028e-06,5.839185726138751e-06,2.475926888553617e-05,1.4034360005902544e-05,6.925027938244434e-06,3.1729709609680986e-06,4.0745474214846336e-05,2.0906729985238736e-05,4.6774274484069484e-06,5.783918212835519e-06,4.139555662429574e-05,4.352022771340452e-06,3.3483982986802854e-05
103.33205269998872,1.4590076360845028,-1.8689273278599057,2.16337468656534e-06,8.004111087844423e-06,5.068726599864302e-06,3.017017254834739e-06,2.113916246365602e-05,2.301523496542078e-06,2.927970785178872e-06,4.980915477191885e-06,3.63044270880332e-05,3.865620365727553e-06,7.068243558718359e-06,1.990617114118361e-05,5.3615432849650095e-06,1.1793656082248158e-05
103.42512390000047,-2.530912589011792,7.095711781304863,2.333357294169922e-06,7.5681317282298995e-06,1.4227364681992552e-05,2.239045838818918e-06,2.8632780425789734e-05,2.2127835242213227e-06,2.015046542620995e-05,4.695734409494755e-06,2.324432479593607e-05,3.8600769061138425e-06,5.032519270154952e-06,8.93819396103633e-06,3.2993834720875217e-06,6.570390273113211e-06
103.52728550002212,-3.111371874282154,10.418742057519134,4.829322597060785e-06,3.5588953470423094e-06,8.863705762448232e-05,2.3103332647741154e-06,2.7611537149187357e-05,2.2455057180726726e-06,6.786478077661669e-05,4.856818892228898e-06,3.7656829773462135e-06,3.4191887087544712e-06,8.472072748183072e-06,1.1130209414660834e-05,3.9788027180877245e-06,7.031260197919872e-06
103.66556222504003,0.4402478955600557,5.732314667900094,5.286568319139157e-06,3.568946969116178e-06,4.857756459593957e-05,2.540421369908863e-06,2.3387685276735583e-05,2.9815413874056268e-06,5.72729108119381e-05,4.825598815788303e-06,3.600777232340952e-06,3.1931537438376747e-06,3.0733192890260404e-05,1.2244674500029548e-05,2.279471535986655e-05,7.002877952250146e-06
103.7079566999455,2.5837292214890577,-1.1926652241390734,6.989193687587438e-06,3.5652763340235343e-06,4.480651063191055e-05,3.0294224729280304e-06,1.3460420229804039e-05,4.01618277799726e-06,4.861932926872123e-05,4.739340600397167e-06,4.8241113903371565e-06,3.1965422427760418e-06,4.361497830378703e-05,9.225915044958215e-06,3.005773014041998e-05,5.832704021346977e-06
