time_s,crankLeft,CrankRight,R BICEPS FEMORIS: EMG 1,L BICEPS FEMORIS: EMG 2,R VASTUS MEDIALIS: EMG 3,L VASTUS MEDIALIS: EMG 4,R RECTUS FEMORIS: EMG 5,L RECTUS FEMORIS: EMG 6,R VASTUS LATERALIS: EMG 7,L VASTUS LATERALIS: EMG 8,R TIBIALIS ANTERIOR: EMG 10,L TIBIALIS ANTERIOR: EMG 11,R GASTROCNEMIUS: EMG 12,L GASTROCNEMIUS: EMG 13,R SOLEUS: EMG 14,L SOLEUS: EMG 16
18.395732706296258,33.46061548327813,-8.888340767168145,1.8926508650076109e-06,1.6622792555579349e-06,1.3617898656208711e-06,4.010277857970397e-06,1.2650050792886382e-06,4.5165393303851e-06,7.823469524070875e-07,1.541788125964227e-05,6.10399984442413e-07,2.664955493115821e-06,1.403522348559214e-06,2.4766671444784545e-05,4.015395577977674e-06,1.827865571207849e-05
18.46780691249296,26.20548263014245,-6.409460318242606,3.5976042061463752e-06,5.846594462364802e-06,3.7180206009895085e-06,2.7554924113777364e-05,8.827702874023412e-06,8.418450714820302e-06,1.5408050759449576e-06,4.163617045098192e-05,3.96406885460797e-06,4.973982870538184e-06,3.6335322771516974e-06,7.804484358103275e-05,4.271431245663388e-06,4.617098677028483e-05
18.599201462580822,14.224231641297868,-1.5059244112229075,2.321934841544703e-06,1.0018451700401615e-05,4.711011046748532e-06,2.8370516670209926e-05,2.329277086724621e-05,6.826437920336087e-06,2.249315391937597e-06,3.877312287970159e-05,6.310371134264405e-05,6.311376379802081e-06,8.88882895417156e-06,7.665194244701687e-05,8.005801509198879e-06,4.814348405038486e-05
18.694819743861444,7.019501149067546,1.0313164887724864,2.1548611784766203e-06,2.295512736745272e-05,6.4710008954280895e-06,9.494172984836366e-06,4.9328310661151385e-05,4.608305686417037e-06,5.321806307852756e-06,2.2929631240007775e-05,7.010949752367218e-05,4.883501246169516e-06,8.341931569438928e-06,5.731981728622437e-05,8.527754963422e-06,3.790920796898584e-05
18.798970399890095,2.194595753912079,9.857845754380962,3.3756769561915417e-06,2.561400960609039e-05,5.7741488763302056e-05,3.609680692422253e-06,5.1863357094691275e-05,2.1639650380726343e-06,7.174396032998999e-05,3.0492644274938884e-06,5.9120906711241146e-05,3.2545351341686355e-06,8.193318323677479e-06,2.7959839485314876e-05,8.720584280938788e-06,1.628619150491214e-05
18.91418300021905,-1.4636355113142718,20.164378860526227,3.654802831532257e-06,2.868295280723798e-05,8.190112332383056e-05,2.205852229004441e-06,4.6810590836718845e-05,1.4913216528666502e-06,7.41486068590543e-05,1.9010444153621608e-06,2.0140070326409854e-05,2.1656605777619187e-06,3.163434975188625e-05,1.6897690596238853e-05,1.4201941446580004e-05,7.482759186495452e-06
18.982249012449756,-3.395348679812891,24.60984947239526,3.856680975880895e-06,1.9708326692580982e-05,6.89912386734555e-05,2.2068679257425006e-06,1.8271018433972564e-05,1.4003880411676048e-06,7.762781926324617e-05,1.8076859547714337e-06,4.164188157262297e-06,2.0383433057363227e-06,3.0274175330122642e-05,1.6111477732629147e-05,1.3929280060278958e-05,7.007566699491688e-06
19.09192979999352,-3.3681776435753514,24.07211017582088,7.187470054171951e-06,2.2931224968338497e-06,5.498420006692942e-05,2.3033976000057683e-06,1.5500739758976655e-05,1.4310083891125776e-06,7.802848737567142e-05,1.8990470874420449e-06,5.231491283448135e-06,1.833709470805105e-06,3.558292359701847e-05,1.5315356774419176e-05,2.3375974124122622e-05,4.675169007433324e-06
19.21944160002749,-0.2050803297328691,20.508423471646093,1.651698558282952e-05,2.3027688141533947e-06,4.419464713827003e-05,2.987498591645128e-06,1.1366854562074e-05,6.111874690044248e-06,5.7184650835813655e-05,1.796154543433274e-06,6.0723021487896135e-06,1.8344168553462368e-06,3.69098473102609e-05,7.660250397769672e-06,3.3675209922940784e-05,5.7910722640566365e-06
19.28770443762187,1.84298468178826,10.448266672965584,2.3738504781495576e-05,1.6161458669668625e-06,3.4600558761608774e-05,2.87752912669237e-06,1.1084541530723708e-05,5.760727602180148e-06,4.81545570315396e-05,2.0992399317373107e-06,6.745575509868655e-06,5.170229352194922e-06,6.001785719195138e-05,4.603623063755827e-06,3.873480855920977e-05,3.6578247087071647e-06
19.41057550010737,5.05569558713714,-5.226055903366609,4.115682846799447e-05,1.6916072480981517e-06,2.1186366684925093e-05,1.2653702043640394e-05,2.6981828771901905e-06,2.1721003114547056e-05,4.571405007999903e-06,8.68291083266015e-06,6.27126647314397e-06,1.7599803759554727e-05,4.3555190128914185e-05,4.0111603933933846e-06,3.3603963499697286e-05,3.1472186896333943e-06
19.530465400079265,18.876898707729936,-7.686430638547417,3.711917515298445e-05,4.1763524551793545e-06,1.7681407537250051e-06,6.557978490415699e-05,2.532707959277749e-06,3.385078877155219e-05,2.2887599293574274e-06,7.915913042425717e-05,4.0411277677762995e-06,4.003571922180859e-06,3.151651608851618e-05,6.742396486803918e-06,1.5535806440577592e-05,6.113368705787701e-06
19.589084418839775,31.543988817761544,-7.111229473464559,2.3980864758353793e-05,5.777941871296915e-06,1.55548212600178e-06,7.397346416494771e-05,1.715348199375047e-06,3.1970164315124136e-05,1.7048430245708479e-06,8.18344090826082e-05,3.713067808300391e-06,2.6879402677477655e-06,3.080890084711063e-05,7.212705554267778e-06,1.4567649085154282e-05,7.66894187467809e-06
19.681405600043945,33.46061548327813,-7.809579074681205,2.3117884483386836e-05,6.3208651770202705e-06,2.3117475861193375e-06,0.00010204612697484999,1.5444274585417155e-06,3.109587713665717e-05,1.964607265014852e-06,9.380494828811233e-05,2.5598422738392398e-06,4.351357697982394e-06,8.393151313227585e-06,1.838152760268787e-05,6.16197819997676e-06,1.7989325897280116e-05
19.825821900158193,33.46061548327813,-7.384494512339246,7.029600727730125e-06,8.960457226664586e-06,5.122882393090365e-06,8.315573678364742e-05,2.803279461101948e-06,2.1183702592667148e-05,2.534346884062648e-06,0.00010364240665555001,1.8738555781723254e-06,5.640098609433082e-06,6.747748791166286e-06,4.0891406998473794e-05,4.697764230777461e-06,3.558645842599291e-05
19.88808265631087,13.277652004916702,-3.9201907852676374,5.8749403798785505e-06,7.388591814093939e-06,5.439465579051284e-06,6.881982275502288e-05,3.3665465861313165e-06,1.610966051204094e-05,1.9709103746940675e-06,7.186262810516724e-05,3.0228590783379487e-06,6.265534112264069e-06,5.542581389245881e-06,5.621056797069183e-05,3.5521335529295966e-06,4.6403215111183216e-05
19.984482499887235,7.892625451473752,-2.656724010332756,2.589483443393152e-06,1.026640200400548e-05,3.3476323591244136e-06,2.7643024093843527e-05,1.3981755517310464e-05,1.0101372205193884e-05,2.553620149100714e-06,2.729075820345193e-05,2.036175621317927e-05,6.860628840439208e-06,6.690950627002765e-06,5.803465805615051e-05,4.177550361728528e-06,5.171880713487236e-05
20.110347481328063,3.2556979465514235,1.0081207450440286,2.372587490543717e-06,2.0078155191540798e-05,1.6780718677687964e-05,2.9536711367019914e-06,4.486806705908576e-05,1.643236266099804e-06,2.3494632750815474e-05,1.5992883525446945e-06,3.496314451997172e-05,3.304445543613465e-06,7.378977326591302e-06,2.4487074693109802e-05,9.787636645265087e-06,1.6411091541949713e-05
20.185331362648867,1.6769711961272509,14.000765983718146,4.400986554834871e-06,2.020596421655229e-05,8.666202458053657e-05,2.850312114775276e-06,3.638154976342155e-05,1.424423453356541e-06,7.201619888866401e-05,1.9323101712746757e-06,5.245219076895529e-06,2.081193371317316e-06,7.683479678853715e-06,1.514260680585848e-05,3.848593979062922e-06,7.120372977210743e-06
20.279783112579025,-0.4570920409895809,24.60984947239526,5.817112432606997e-06,2.3562040709653668e-05,9.25942202623678e-05,2.857838073529995e-06,3.421774089706433e-05,1.365996469757178e-06,8.391565818349032e-05,2.027124545366148e-06,4.666006710183316e-06,1.8613487259796253e-06,1.2560297884156573e-05,2.217050750341781e-05,6.1968484390717926e-06,7.01878341601563e-06
20.41817590000573,-1.8652695540117632,23.13828885449531,9.32561572059113e-06,8.036853105250304e-06,7.563186613795515e-05,2.1193902713817823e-06,1.6152771763735906e-05,1.5778580928785783e-06,6.921289758874727e-05,1.558991285999133e-06,4.590279048260333e-06,1.918397945924417e-06,3.0906371234530806e-05,1.6006997898561884e-05,1.6883660715686533e-05,6.514205511096381e-06
20.49391280009877,0.6520354608034142,13.564152451613605,1.9282505477713983e-05,4.038266727686109e-06,6.361454024621292e-05,2.464441262674277e-06,1.4140904329296907e-05,2.0719881556940962e-06,8.34018939579481e-05,1.7757780302498478e-06,5.878990459650183e-06,2.2588560846734403e-06,4.0105208677653414e-05,8.23014443137008e-06,2.6352980021298286e-05,4.7516758754003e-06
20.57918910018634,3.7073914433511908,1.6089165461891488,2.1370288221117014e-05,3.2158542866339275e-06,5.226025878561177e-05,2.4983612384356933e-06,1.0147606554349935e-05,4.050960352643795e-06,3.867057079708873e-05,1.957892183321957e-06,5.765125629610891e-06,2.729041273202231e-06,4.08703400059027e-05,3.745273881672943e-06,2.9666029194978212e-05,2.7359547229139054e-06
20.717433500220068,8.349389185770073,-6.546914734668681,3.10583214589582e-05,2.5132582261536056e-06,1.6062589841938767e-05,1.6222747491188224e-05,1.3610078014554375e-06,2.5694021863499023e-05,2.629593791328893e-06,1.232848847575731e-05,4.167348834363726e-06,2.431958741029489e-05,3.552649678533337e-05,5.598495998878052e-06,2.351193952570594e-05,3.6128120677407606e-06
20.803550124983303,23.736569005633847,-6.5115412256222,2.5208457443550632e-05,7.892362551906479e-06,2.340321180801848e-06,7.51552453958104e-05,1.3205873166057936e-06,3.418942446755023e-05,1.5498029918202404e-06,7.791597984751548e-05,3.306680628432724e-06,6.700684660735884e-06,1.943865987638472e-05,1.019729915301508e-05,1.1311233478581945e-05,7.311535164891292e-06
20.8955944001209,32.99839735458278,-6.478126632951005,6.586698653746988e-06,7.905922840709174e-06,3.1207349668540265e-06,9.643541186868904e-05,1.613282087745277e-06,2.5415921389802695e-05,1.8156412673257891e-06,7.7828504775917e-05,2.7938420659204002e-06,4.168549077859499e-06,1.182569503791189e-05,1.7770548945572695e-05,8.247764402717994e-06,2.517466871182927e-05
21.022473499993794,33.45062159981398,-7.092101577455063,9.115142498546168e-06,8.625945864963874e-06,6.314953455668219e-06,6.810557431011895e-05,3.1489193690933217e-06,2.4047473946868556e-05,2.539875836925367e-06,0.00011217878541865001,2.0911777082365615e-06,5.60246260056646e-06,6.425817928429333e-06,3.785561533632388e-05,4.782255735388813e-06,3.7079273884785946e-05
21.0804740000749,17.847953490690333,-4.200450798492789,8.510634665765746e-06,9.605158420330292e-06,6.496492818193455e-06,7.501087007308579e-05,4.115975744055943e-06,2.1017376030887328e-05,2.7258713816713e-06,8.613161179282402e-05,3.0379375360884717e-06,5.709475876957189e-06,5.9861119072697565e-06,4.907547041447484e-05,4.162143896121794e-06,4.329228139677574e-05
21.200290962471627,10.19965383601852,-1.457001398538197,2.3162282354322515e-06,1.1625296984139236e-05,6.801164913814369e-06,2.494889623946038e-05,2.9484941037663877e-05,8.608921175849858e-06,3.632979213809635e-06,4.330889301335254e-05,5.143704575965644e-05,7.575668202714525e-06,1.3913907009236662e-05,5.6474478585398255e-05,1.0308913148254736e-05,4.641315887329418e-05
21.29387440008577,5.424739733264916,0.8851577911592328,3.2562422555853865e-06,2.2845263661221e-05,1.886135611290709e-05,3.09750790289644e-06,6.608142360741865e-05,1.9388983666653986e-06,1.674943845523507e-05,2.1730865007575047e-06,9.048626293411507e-05,4.4525540460089225e-06,1.0262166565419815e-05,3.474142089562837e-05,7.197760410949908e-06,1.4365887522595918e-05
21.39391038764733,0.5316097897996026,20.81127360079658,4.954126929963944e-06,2.2492343397626385e-05,0.000128210054209,2.8831515588508573e-06,4.622114848096902e-05,1.410847742755666e-06,8.366133176000719e-05,2.106825079924776e-06,4.739106061942059e-06,2.010060884409936e-06,9.086900868641912e-06,1.9488739712226e-05,7.18269926206224e-06,7.096758829693805e-06
21.503494300181046,-2.5706956334424826,24.316928967955164,5.2225077638730045e-06,2.4613004490628728e-05,8.094502422921265e-05,2.0429575882026514e-06,3.0209081031423753e-05,1.5380079572761436e-06,7.549826423702975e-05,2.3621014927048827e-06,3.70093283273965e-06,2.2388073376813354e-06,2.4991351735548238e-05,1.698289271512946e-05,1.005367092673324e-05,1.1090883525433676e-05
21.57160160015337,-0.6869436799503041,14.584351755240341,8.234988254090354e-06,2.125818737617291e-05,4.957406352293653e-05,2.1712741246605913e-06,2.0770700819488067e-05,1.7762068175512627e-06,7.607614623241129e-05,2.3390560756098076e-06,4.566521684237638e-06,2.0578777264596553e-06,2.6696509845788526e-05,1.9370619215698328e-05,2.2172864417270494e-05,8.608474190268004e-06
21.655285429791547,1.9555228689865043,6.311731926278972,1.5255834497933489e-05,6.4987052138040235e-06,5.0335526862642176e-05,2.6934526125605907e-06,1.2252481618832147e-05,2.348914151483466e-06,5.80011667263448e-05,1.5556531102177706e-06,4.855318572879265e-06,2.036336989900931e-06,3.561854444554011e-05,1.5174798218602624e-05,2.427507269226309e-05,5.282015054675503e-06
21.804985737544484,5.159748683674862,-5.6761703120977085,4.323600711658419e-05,1.866534963833218e-06,1.482464356836649e-05,2.9053593137160718e-06,6.724466109299348e-06,1.3597679739750122e-05,2.6045696183433925e-05,3.1428501719321096e-06,5.070582043067257e-06,2.478064667148825e-05,3.243322020524778e-05,5.927479096340025e-06,2.955607133850492e-05,4.83187599575792e-06
21.9016351000173,13.526717789988204,-7.949159330367914,3.789629491913336e-05,2.5872952833845777e-06,6.81103434505238e-06,2.2680005642922358e-05,2.1736345601763207e-06,2.7502956178319894e-05,7.928170524253229e-06,2.0461409592233102e-05,3.2160273091972978e-06,1.3538718859068197e-05,2.271640376519314e-05,4.032049618788846e-06,1.939618967765214e-05,2.956642382528435e-06
21.993683499866165,24.57732206316633,-8.573848409716017,4.566789836065864e-06,4.888072446126463e-06,2.2677726535850884e-06,6.120827260223015e-05,1.6863786193097192e-06,3.3673324823565446e-05,2.019830333490677e-06,5.321287710140028e-05,2.27282041730742e-06,3.446605057097205e-06,1.7346458415509575e-05,7.002885783942254e-06,7.816466445023327e-06,8.183860199276685e-06
22.10359432490077,28.708693248585792,-8.691076993967158,3.406037759476015e-06,4.501087364958631e-06,3.36266215462281e-06,4.939542888498975e-05,1.96214193461396e-06,1.652016257443985e-05,1.6580540519074384e-06,7.178304378758167e-05,2.034105359419479e-06,3.216465774808606e-06,4.017852513726993e-06,2.4012013942280757e-05,3.2809339111496835e-06,2.695146617258284e-05
22.194153700140305,18.952370469339503,-6.257360138734243,3.6809290572687225e-06,7.195949979696501e-06,4.444827394037909e-06,6.577855953096539e-05,8.255649389624515e-06,1.3630562110653234e-05,1.8503948131819944e-06,8.15256141610652e-05,4.760300255740892e-06,5.3792975956574544e-06,2.4886118665073315e-06,4.566054994542243e-05,2.6778961927693185e-06,4.063607667402034e-05
22.275565359392203,8.73353384990701,-3.7607717143818284,4.139760860226666e-06,1.1119228551268992e-05,8.76310869383112e-06,4.224840631518052e-05,1.6698585829892492e-05,6.8533896200451e-06,3.200038751365251e-06,3.155625973495044e-05,3.0499582645412878e-05,6.704241897063421e-06,4.856261415160661e-06,5.748065887672805e-05,6.315130803475616e-06,4.1478106440568055e-05
22.41811550001148,2.1535314400681926,0.0180126090491876,2.949042758949726e-06,2.218599418228049e-05,1.8672757874375443e-05,2.058573836358813e-06,3.386012646422042e-05,1.5671312180151532e-06,2.138153905510416e-05,1.6876437556823964e-06,3.139328339548071e-05,2.494555890522103e-06,3.971530726322951e-06,1.5871146073114e-05,6.60692193859178e-06,7.483800649419335e-06
22.51471059990581,-0.3732535851677381,5.940973467332253,3.89849006337544e-06,2.9932170053061995e-05,4.789742571311238e-05,2.000950734064545e-06,2.341080552392996e-05,1.5968762446200318e-06,4.148271777970063e-05,2.097437604217453e-06,2.9902740744788114e-06,1.7940480015265666e-06,9.490076375699956e-06,1.5352172798758485e-05,4.439710336712503e-06,7.0814114986638185e-06
22.593649299931712,-3.1528593776906995,11.769660858719906,3.652111470504677e-06,8.577207877994765e-06,6.954734121312042e-05,2.0954827891422543e-06,1.7452838820552516e-05,1.4605945132188635e-06,3.201953704656979e-05,1.925200000725608e-06,1.9169324023195536e-06,1.789230416655456e-06,1.125595902353403e-05,1.394094666925026e-05,4.1100411169928125e-06,6.413325218216234e-06
22.68061580008361,-2.6473577861421926,19.457101866600848,3.786098168491528e-06,3.224481329297727e-06,5.3457791415473534e-05,2.097882995486881e-06,1.5356250030384726e-05,1.34735688637656e-06,4.703309010085548e-05,1.6694110964364876e-06,2.1185263793579923e-06,1.772295086905607e-06,1.1456729449825528e-05,1.1879519734681327e-05,6.764516593460743e-06,8.189178830674814e-06
22.7696611500578,1.1442530423687498,9.112492665328144,7.873081413743505e-06,4.317095848602449e-06,6.172914080575015e-05,2.7128162872843104e-06,1.8292099740076723e-05,1.3495275456272485e-06,6.823792491372885e-05,1.688350899881138e-06,3.3112802512334275e-06,3.5719097124465457e-06,3.014228347701969e-05,1.2033360162193656e-05,1.95227076209932e-05,6.434218544003754e-06
22.88863770000171,2.890494768047705,-0.924388866809606,2.0029356996140604e-05,2.2251996656223886e-06,3.777288132691262e-05,2.9537451363154745e-06,6.245395026082932e-06,5.20684050209982e-06,4.221017266907066e-05,2.01746311200248e-06,3.8017658272494313e-06,9.922498636716831e-06,3.381261057252638e-05,4.073152434691228e-06,2.699984606561686e-05,3.433895358330769e-06
22.995792299858294,15.826861371383043,-5.119263484449425,3.683832021483233e-05,1.9048285763880589e-06,1.9743501391061313e-06,1.3012904928368306e-05,1.5278526660670228e-06,2.369792369590175e-05,1.6379808884935322e-06,9.385061327116519e-06,2.9634114993590223e-06,1.720779567183159e-05,1.4584512486609763e-05,2.8303892701912747e-06,1.2434087625345586e-05,3.3336599894147077e-06
23.0813776999712,17.181534171317892,-6.50358505778203,1.262083852591676e-05,3.662804194709759e-06,1.853270542812735e-06,6.041626882796669e-05,1.4420437493888223e-06,2.5888837116326616e-05,1.945965631955167e-06,6.052070420968946e-05,3.133785555622269e-06,5.858212529739184e-06,1.2186695245987278e-05,1.0304653422844768e-05,6.754618349957558e-06,7.812130104625043e-06
23.206122999894433,26.085939607099313,-8.294092503311072,6.09938331083453e-06,4.98240944349949e-06,2.6605586698771825e-06,4.960714398658826e-05,1.7938972728400258e-06,2.1605716407816284e-05,2.91574192788363e-06,5.3223312409676825e-05,2.462758011445112e-06,2.9409426748889828e-06,9.078610319257713e-06,6.3901938090696855e-06,6.211668132468459e-06,9.737874921402134e-06
23.277596500120126,28.435588617011092,-9.654657789929143,4.858891250699706e-06,7.451048563176955e-06,3.0271575207390427e-06,7.04575800522716e-05,2.0583058826450556e-06,2.028150654609844e-05,2.72437622294833e-06,5.971419616254758e-05,2.7423147599349823e-06,4.34096830510983e-06,1.1123121243297547e-05,1.0700621655174114e-05,7.56316748001578e-06,1.5498323800175915e-05
23.366631146753207,22.358630011139336,-7.718885400303286,4.605534700591957e-06,6.533113947859283e-06,3.345786318392996e-06,4.972669910143628e-05,1.2164728387066251e-05,1.4432840226537931e-05,2.212792469775465e-06,6.741924541475944e-05,2.9285276830098897e-06,4.025272038482254e-06,5.346911252964352e-06,3.200459512115933e-05,5.377687297260836e-06,3.213724279095341e-05
23.51662009989377,13.255183450617272,-3.8458358209299206,4.301570888779669e-06,1.115636475227525e-05,3.6409465321134e-06,3.1283064337151585e-05,2.823512955922218e-05,7.449058166656991e-06,3.488798817414874e-06,4.702324065127851e-05,3.432459118094271e-05,6.665564341847198e-06,6.245508746261585e-06,5.755937935796648e-05,5.671910963558708e-06,3.0283933675222763e-05
23.59620959998574,4.8127447259890825,-2.18247169654109,1.7855906069882765e-06,1.68955173269125e-05,4.003363946242896e-06,3.4253182707226284e-06,4.7507807068377126e-05,2.7886584321587984e-06,8.711437381401645e-06,3.8426703206143305e-06,3.780846928258895e-05,6.010310122463852e-06,7.787508164698279e-06,4.666854485952925e-05,8.438933910047658e-06,2.4762527039280183e-05
23.691085399943404,2.1275070218779373,3.577531909648463,2.802053415956017e-06,1.717362448230188e-05,1.884168087329251e-05,2.2291888261991875e-06,4.5198531858036965e-05,1.584262733344385e-06,4.2867853797962494e-05,1.929053569157617e-06,2.110477956413621e-05,3.197339473248572e-06,4.574217047345673e-06,2.845689219716653e-05,5.842162398696434e-06,1.9225129350564286e-05
23.830730599933304,0.1106497142021192,11.871790385479468,2.948021365956266e-06,2.2115651740655548e-05,6.190239869236339e-05,2.489673866415008e-06,3.492975092704179e-05,1.2420801700530836e-06,6.385274693175798e-05,1.754993821465309e-06,1.366794791129895e-05,1.9339264105346155e-06,7.124949202300621e-06,2.181161352677254e-05,6.190626254964332e-06,6.247897130332468e-06
23.888850049930625,-0.9171858591494104,19.295561891414494,3.4534653982803773e-06,2.0120692599015564e-05,5.863060860913968e-05,2.3786700298873363e-06,2.429443445303899e-05,1.51347827648399e-06,6.474928501306043e-05,1.7555709574868269e-06,2.538301590230056e-06,2.8110148733881223e-06,8.173980731774954e-06,2.0759809748547642e-05,6.406940474414501e-06,6.1769668996632994e-06
23.987291399971582,-0.3455968034387171,18.399723438720677,1.2731950684971271e-05,9.595294039529962e-06,6.755736032357308e-05,2.5446761958705433e-06,1.6204456017087213e-05,1.627040974586619e-06,7.992596323082394e-05,2.1849449651624452e-06,2.0423992025597672e-06,2.875294468890906e-06,1.3479915325259622e-05,1.4142000052354955e-05,7.608707478050897e-06,5.329428455654235e-06
24.123659200035036,3.091143479613434,7.617748753338359,1.6752671893139167e-05,3.147632022895308e-06,5.86772223263374e-05,2.912134694752363e-06,1.107111593998734e-05,3.119655310125963e-06,5.6020989405396705e-05,2.2222527681734686e-06,3.4803249812035177e-06,1.2496387555015024e-05,2.9444746455879805e-05,6.412042543655741e-06,2.170942019917313e-05,3.8031984433609053e-06
24.15059990005102,3.0461615597052365,1.8634831418181328,2.6493759211828044e-05,2.904832123716901e-06,4.295550891934552e-05,2.8524853535742213e-06,9.084081306839641e-06,4.397896121351942e-06,5.16945356850122e-05,2.2856115245449374e-06,4.5992637058810575e-06,1.1923958753836871e-05,3.924329508497245e-05,6.101311637940139e-06,2.723967772007401e-05,3.7958783926551087e-06
24.30643158440944,4.006539859452785,-3.53286726146854,2.532036646793972e-05,2.372943312487716e-06,5.3532537669107724e-06,2.6638772714084617e-05,1.7813142205261734e-06,2.3517731082029823e-05,2.285091670293521e-06,2.1109480538809235e-05,5.308482334168343e-06,3.052790808730948e-05,2.6815985218818457e-05,6.61801745433872e-06,1.89325444648529e-05,3.891293457689856e-06
24.380543500068597,17.785036598464693,-5.462731233203169,1.9029547796204967e-05,5.997815323567419e-06,1.7165696108344972e-06,6.615920261985456e-05,1.3174493173427988e-06,3.1111460604314456e-05,1.4478890319192409e-06,7.299829631381545e-05,3.172272943481517e-06,1.3202436060810355e-05,1.2543228224314913e-05,6.001838569848857e-06,1.0915728346657872e-05,4.511879856749593e-06
24.49074820009991,32.208965896473686,-6.059958161557619,6.954586925797436e-06,5.3256452947170385e-06,2.0037639346616988e-06,7.197564436543154e-05,1.3793921802211466e-06,4.131070548945839e-05,1.490556177079713e-06,7.782432146680022e-05,2.047563662420879e-06,3.459228022614486e-06,5.892605932998057e-06,8.717674641114625e-06,5.1682447953465965e-06,1.5933122040144332e-05
24.62039761559572,33.46061548327813,-6.188790999992574,9.348724347159052e-06,8.811598338355388e-06,5.45555323115476e-06,7.103061692909708e-05,3.1296224652727867e-06,3.1494227699385084e-05,2.916594314893805e-06,8.764722747457704e-05,2.545480902506204e-06,4.450303101304626e-06,5.477087678129743e-06,2.321076232073539e-05,4.318813802891218e-06,2.208809653495173e-05
24.725415799883194,31.21848925680233,-7.421860411497375,6.269018673679353e-06,6.679651976039014e-06,5.55442373831847e-06,6.928669349246045e-05,4.154216983254489e-06,1.9608364216452417e-05,2.300985915547934e-06,0.0001072754298443,6.531070780332985e-06,5.364605740820123e-06,4.1056155289049765e-06,3.612322754564659e-05,2.911463161477552e-06,4.360114306004771e-05
24.784296675235964,18.88431460937028,-4.964605502096242,5.246240641589797e-06,7.257127091260334e-06,8.691509789300443e-06,4.908882919888343e-05,1.0938520053600526e-05,1.4701584867804702e-05,2.45575399025416e-06,6.016309353403535e-05,9.1660398614087e-06,7.250521429438766e-06,4.041004510547998e-06,5.408845137302161e-05,3.0683888138452517e-06,3.801173969605727e-05
24.87370060000103,8.974145535954072,-2.348466611178015,2.8864036516155022e-06,1.318667404557661e-05,6.740948115485345e-06,4.030971170577175e-05,2.0493369448607573e-05,9.8588974013996e-06,3.63146046921506e-06,4.515106622686061e-05,3.3117748530411145e-05,9.90543907768668e-06,6.565435535423614e-06,8.513600384564518e-05,4.307517619210126e-06,6.298949268196778e-05
24.95577673765365,3.6132296107590567,3.517911851900771,2.4553880760908216e-06,2.250135025840613e-05,1.2352451842694016e-05,2.5562186434770576e-06,3.680028932827471e-05,2.3416595938232337e-06,1.596643948736801e-05,2.216914980305864e-06,4.487564797777615e-05,6.726512906032202e-06,7.586416143276196e-06,4.72149702561887e-05,8.926948823016645e-06,2.298922024478013e-05
25.098437800072134,1.3454753686677037,18.839198136606797,4.8007646026448e-06,2.663980927225189e-05,8.13920238110961e-05,2.735145058066162e-06,3.862094303698962e-05,1.4906755340323028e-06,8.997983454567246e-05,2.188224846673604e-06,3.904686016898424e-06,2.0046149339614524e-06,1.4228964291660297e-05,2.2978245340939028e-05,7.820422685041952e-06,6.954460093269147e-06
25.1762982000364,0.0232447751823898,24.60984947239526,5.569767677332422e-06,2.759451121176565e-05,8.315454139620674e-05,2.6259067789200213e-06,3.17191211909122e-05,1.3556913769540406e-06,8.315418314868368e-05,2.28114266866312e-06,2.7978365421163005e-06,2.4933728539383056e-06,1.6222390465044027e-05,1.995659415633028e-05,6.287400158459481e-06,7.393438362163216e-06
25.273509500082582,0.8712662632262387,18.665034359441194,7.151438216577957e-06,3.118183135751726e-05,7.423751000075624e-05,3.2545391807221216e-06,2.469935194037413e-05,1.907950332561721e-06,9.209685231384294e-05,2.7860448624904316e-06,4.000612722089889e-06,2.5988480718137462e-06,2.4083725550143193e-05,2.006958397484468e-05,2.1098880438386524e-05,6.6573740876371735e-06
25.41716905625071,2.768219678446621,5.486136323734383,2.711129096622978e-05,4.2594737602264375e-06,6.640346541998771e-05,4.817208306353674e-06,1.120254354034797e-05,3.663412644484407e-06,6.45737525420357e-05,2.348147784678427e-06,6.656411597730437e-06,1.927454563711253e-05,3.999539062507978e-05,7.726675492809481e-06,3.9713339446752307e-05,4.432613453067423e-06
25.493610000121407,3.988430109384003,-2.9048560766807388,2.5305973368068986e-05,2.144781353227782e-06,1.5022142358285306e-05,4.743516742813488e-06,4.675249852832068e-06,1.957395841685961e-05,1.5301957981061545e-05,3.6119726381730467e-06,7.772035647046488e-06,3.139948848463161e-05,4.622541253762271e-05,6.546584404212606e-06,3.1492484098109936e-05,5.090134406624074e-06
25.598932398366742,21.60664802230686,-6.086252080725414,2.2622645358795275e-05,4.7585042406029625e-06,2.542784741781437e-06,6.360685506061518e-05,1.9822876300846223e-06,4.303340283286843e-05,1.8654363787030475e-06,8.733060879406981e-05,3.2154117920842715e-06,2.1932284201372186e-05,1.3345336360666837e-05,7.58362901382667e-06,1.3644047760244393e-05,4.7860242873261425e-06
25.739032200188376,30.790106002225706,-6.957782973066976,5.627975274168925e-06,9.191171414681009e-06,3.1170732417583926e-06,8.42216618575304e-05,1.5003222940400317e-06,3.1288154239992193e-05,1.6198429083823978e-06,9.21021737239206e-05,2.560481633779116e-06,3.666466608899292e-06,6.7091397584028585e-06,1.3073883778052506e-05,5.309890437643498e-06,1.6495391263145263e-05
25.776834600255825,32.82899717226974,-7.454309355961893,5.3007702842265e-06,8.582157650666532e-06,3.33411315880014e-06,8.090519069224258e-05,1.5053160372875135e-06,2.814951293264425e-05,1.9595960836242e-06,8.530824972328372e-05,2.566598308424716e-06,3.885790566340059e-06,6.728753922907696e-06,2.5039166591563327e-05,4.857918654772876e-06,1.7930596388854605e-05
25.92220541392453,19.615102679903288,-4.147746490991315,6.6196709969534336e-06,8.205802092010683e-06,7.838607234397729e-06,5.686728296561088e-05,1.0401829970237954e-05,1.2572276320183488e-05,2.4911871806767374e-06,8.799395585994162e-05,1.1601137114838678e-05,6.592404940509133e-06,3.965786316061067e-06,5.1360031258025176e-05,3.568683697499344e-06,4.1474925905132435e-05
26.00309352495242,10.63576219095605,-2.279767347969767,3.205028101080217e-06,9.397961450130991e-06,6.970817532289527e-06,4.2276176603851856e-05,1.7668796459494498e-05,8.140880326823857e-06,2.4238269947227176e-06,5.548465353567349e-05,4.190502796812166e-05,6.430097671694424e-06,6.406210719502989e-06,5.099637540012635e-05,5.9157080571287065e-06,3.876181454455102e-05
26.082491589011624,3.1977041271014297,3.089335210590723,1.6526880650727359e-06,1.776151922163399e-05,4.225193691737023e-06,4.470482355724597e-06,3.924882870609099e-05,1.8809753992200919e-06,6.879345291104975e-06,2.279215100630184e-06,5.760475922322922e-05,5.000849022349044e-06,8.243457950458363e-06,3.93713935847996e-05,8.733780808014388e-06,2.5758654444331992e-05
26.195252737379633,0.5669333116303918,18.222020877689214,4.009973555209096e-06,2.6723006596292057e-05,7.618800817400157e-05,2.3396924851077498e-06,3.916446731126623e-05,1.646091392758604e-06,7.159294462231178e-05,2.3805210431646006e-06,2.3244763493756837e-05,2.8004271287007254e-06,8.41916350973708e-06,2.7945857967639192e-05,7.49067310448998e-06,8.41977410050303e-06
26.28044113132637,-1.05061368885189,24.410172112438133,4.5553772420978195e-06,2.5760863604534775e-05,0.00010229208117329999,2.42711095429901e-06,3.760942182972747e-05,1.572755799986845e-06,7.494801688537996e-05,2.3289388903737432e-06,4.711500615665172e-06,2.8296103968550933e-06,1.4958554246298872e-05,1.9348245428463887e-05,1.0149881308074964e-05,7.689839090055786e-06
26.41696252499241,2.040588194879011,16.027658347547998,1.8443784898971165e-05,9.875515908618844e-06,7.60234734676387e-05,3.1308961359554447e-06,1.8215564899267155e-05,2.4566087545896587e-06,6.545280984116918e-05,3.1046901976743395e-06,5.447062532329045e-06,3.055577294866666e-06,3.196624185545173e-05,2.0430524446455928e-05,3.0185333238372213e-05,6.301476565087016e-06
26.501806700020097,3.538090242174272,3.801370948882785,2.8613174373495148e-05,5.103646281147451e-06,5.157727188382277e-05,3.413220662600822e-06,7.829058270088235e-06,6.834996592359864e-06,5.791512913915303e-05,2.550715369544058e-06,6.8736042776787214e-06,3.184874955607618e-05,3.723896708406182e-05,9.331485403625283e-06,3.460949550232955e-05,5.080534061400579e-06
26.598877937649377,6.400119979241594,-5.879835351742294,3.273354130958276e-05,1.9923798620906577e-06,1.5267318603078485e-05,8.924083455014944e-06,2.3015611599342824e-06,2.678383769767672e-05,2.5640637606140468e-06,7.701467978190292e-06,5.396388639818312e-06,4.246458945266706e-05,3.190919417435694e-05,8.131124520933086e-06,2.4093200279948728e-05,5.113139710150375e-06
26.705777506227605,20.456073047757712,-6.533271468781583,1.5172409985287054e-05,7.35810754198081e-06,1.8884088095381976e-06,8.24942742529612e-05,1.2746762942860198e-06,3.1246201542402307e-05,2.0255798498783086e-06,7.149706210547114e-05,4.755514371293561e-06,7.276819109619803e-06,2.4399651076683223e-05,7.803937986782653e-06,1.3896458936815577e-05,4.730634824757893e-06
26.781278899987228,31.919178503142007,-8.081036009766668,6.585921209808751e-06,8.986803565358156e-06,2.419018726318745e-06,8.43298066353799e-05,1.5331360953266224e-06,3.064260283571689e-05,2.258521023475075e-06,7.839698789328067e-05,3.639539801927652e-06,3.617516365826284e-06,8.94047138083646e-06,1.123626824959028e-05,5.5432042566866616e-06,1.3072176800751568e-05
26.907994500128552,23.648247670001957,-6.510841755054081,5.7728111407180715e-06,1.0868424405061884e-05,6.212267168009576e-06,9.454874647126904e-05,7.89943617586964e-06,2.5332737995834095e-05,3.517690542454391e-06,8.298611790481148e-05,6.213083605540999e-06,6.3999734518393996e-06,8.963063176759802e-06,3.5427296684122465e-05,5.142331080018008e-06,3.4990826719010336e-05
26.978818062343635,13.012096904954484,-1.779783575549458,3.6264010780446903e-06,1.01751670244513e-05,8.327962441520186e-06,4.6333786225953406e-05,2.677831046773304e-05,1.61907084749316e-05,3.491185502682576e-06,6.518571499488435e-05,1.871287934177813e-05,8.7105651862882e-06,8.45122398710477e-06,5.215682083102752e-05,5.087001437722708e-06,3.957081330985857e-05
27.095698237535544,5.958066661717472,-0.5976581288930829,2.588079226621072e-06,3.052333675373467e-05,6.702039126025305e-06,1.49180666123942e-05,5.893566206129242e-05,3.217817582176111e-06,1.2218457706632002e-05,4.364597651208444e-06,4.7747549633739965e-05,4.956587093128513e-06,9.163323817708725e-06,4.471425403700732e-05,7.896937192073418e-06,2.4905928966441413e-05
27.193921200116165,0.8195113923963901,6.061569007431019,5.6693092166062414e-06,2.8816538138364284e-05,3.3465501528224765e-05,3.5683639525129565e-06,5.651009982536183e-05,1.7853400937576773e-06,5.340205438130111e-05,2.291397924261831e-06,4.7342095119102016e-05,2.987158141057676e-06,9.579787320581632e-06,3.0149678661949347e-05,7.009771918151001e-06,1.1506386754816798e-05
27.293182299938053,-3.9786273978009348,19.36018296121962,5.01739402610446e-06,2.474355637556971e-05,7.730358580758347e-05,2.062506643524e-06,4.307865105634928e-05,1.3697686962305039e-06,6.83374748160634e-05,1.938598119591489e-06,1.820288935239327e-05,3.373024881794365e-06,5.522190993290688e-06,1.977413952346556e-05,5.329035086163191e-06,1.0728924514997112e-05
27.412689356366172,-1.617020995463613,14.576409795083212,6.086268562990427e-06,9.45523207473384e-06,5.6631777317750654e-05,1.956882015467767e-06,2.259500892448742e-05,1.725983304857426e-06,6.899684830249543e-05,1.8669578129722633e-06,5.915615648968203e-06,3.8112596428182984e-06,2.1993754851947683e-05,2.635126601485765e-05,6.89421399473969e-06,7.860387075944823e-06
27.48302555002737,3.748100305806756,4.094233142171926,2.7147358833538695e-05,1.795583493204547e-06,3.952398896671393e-05,2.2509247104922743e-06,1.511283936222363e-05,1.02024981163976e-05,6.732656261416805e-05,2.0638415345450383e-06,6.177358546792602e-06,3.7195818463496814e-06,4.426322681810455e-05,1.7379740914891543e-05,1.895174198715751e-05,5.7977522851397285e-06
27.599636887316592,4.213341053506724,-3.4381267722377595,3.793919416678321e-05,1.8789630749925835e-06,2.162938317842802e-05,2.461230334171729e-06,3.485931131404261e-06,1.173644514712414e-05,1.6009249769306514e-05,2.627375045679219e-06,4.775192351030048e-06,3.511730513247312e-05,3.000941025898161e-05,7.173100870290808e-06,3.144880917863074e-05,5.777154984843065e-06
27.716503299889155,15.205502765872474,-5.711350887844682,1.9584641466656137e-05,4.047401373606635e-06,2.3467675211278816e-06,3.774726111616687e-05,1.551050437851496e-06,3.029200378820213e-05,2.08211246650605e-06,3.8116549811822656e-05,4.242496683971706e-06,1.0312511980406569e-05,1.8687795072859206e-05,5.814837464660917e-06,1.09586491254598e-05,3.829167442370652e-06
27.77651876246091,26.376219433852143,-7.398353213797672,8.36446976280344e-06,5.297056708349064e-06,2.576553757567985e-06,5.569040194360477e-05,1.8232996905508792e-06,2.197786955300587e-05,2.505306741979661e-06,7.014443882491624e-05,3.933560861971954e-06,2.8318148884411512e-06,1.1124792373326945e-05,8.026367172413446e-06,9.745663357373762e-06,1.0510079612877064e-05
27.91297499986831,27.32813976122826,-7.581646981185545,6.801510016563962e-06,7.953160936435995e-06,5.219964596277864e-06,8.062694619143785e-05,6.307018701595916e-06,2.5690788621297923e-05,2.274664783950586e-06,6.946429783704586e-05,1.137473856983149e-05,4.3323569396147655e-06,4.923805125251228e-06,2.4804311155262748e-05,3.892567931680342e-06,2.1977671814325036e-05
27.99091520626098,15.837241820228513,-4.8993071482965975,5.229827541822536e-06,7.71277477973827e-06,5.258255200614746e-06,5.7472755243346386e-05,1.4684254548755762e-05,1.7453369152020296e-05,1.7813193420680539e-06,7.660969163871596e-05,1.9289830366369734e-05,5.857756494943447e-06,5.085876727595666e-06,4.339610544000948e-05,4.109569136115815e-06,3.544262895962332e-05
28.098989299847744,6.27242233945228,-1.9836534481150965,2.048925031612483e-06,1.544503347316095e-05,4.138499134969496e-06,2.4450973481851626e-05,3.111014817088723e-05,5.115551590032835e-06,2.489998142030444e-06,2.132130444976776e-05,3.7843212190355215e-05,5.293363048766916e-06,6.562586407435231e-06,4.967953309650724e-05,5.534615082753331e-06,3.0120578329655768e-05
28.193033900111914,1.3223599715379506,5.597795975706544,1.7263564669894115e-06,2.1740229655704364e-05,7.3013904941437505e-06,2.577754694787261e-06,4.8900699783385836e-05,1.4867351492846137e-06,1.0787507768730703e-05,2.2208841346881597e-06,3.771803547014477e-05,2.5010941422398575e-06,5.218461253095121e-06,2.499187389531425e-05,5.1914498318582875e-06,1.1576404947783568e-05
28.273991499911062,-1.0055221797834362,14.731932796920841,2.815751992254847e-06,2.415190220080753e-05,6.02701619810876e-05,1.8561199955056612e-06,4.893646716833609e-05,1.7324916009843865e-06,5.937642499121575e-05,1.9066903946747638e-06,2.3895882664263797e-05,2.321634116143863e-06,7.38136200420058e-06,1.7984729906637253e-05,5.9335088496857115e-06,5.592432714491688e-06
28.40165500005241,-2.3713783665869705,20.925528590163825,3.937993487168147e-06,1.1022851990205097e-05,7.061206774027984e-05,2.168872200896083e-06,1.957135938034248e-05,1.5681662862535148e-06,7.437643686678847e-05,2.500453240732008e-06,3.04820549703322e-06,2.2488927939780327e-06,2.284833757125236e-05,1.864186841671768e-05,1.2398894401689205e-05,6.63904215687759e-06
28.483659125049595,0.5235996930023243,16.854179135012703,1.0103004130651214e-05,3.3323345762812678e-06,5.532068973670188e-05,2.5918354376670452e-06,1.739649344658073e-05,1.8707503544389584e-06,6.683786332227712e-05,2.2468182280611425e-06,4.536579266839896e-06,1.817108121994593e-06,2.4672018699339877e-05,1.907167889542355e-05,2.3273155720195655e-05,6.072351417277875e-06
28.59582230017986,3.661315455937191,-0.119706877542991,2.47925804787271e-05,2.3517126772926368e-06,3.823061322973163e-05,2.8276566207674824e-06,8.162057741138423e-06,4.949078791028265e-06,4.130091205435228e-05,2.0354212364782373e-06,6.8683247319089205e-06,8.895860161126806e-06,4.44027186477316e-05,6.745340248359562e-06,3.725524264246402e-05,4.045700573168224e-06
28.704628400155343,10.673164419499162,-6.581267964202773,2.9376821427057736e-05,1.725624665247544e-06,2.9365440474282763e-06,1.4964597052594518e-05,1.3103348593880689e-06,4.113583824178424e-05,1.954392717649506e-06,1.044862011841146e-05,4.469157740022772e-06,2.7164824339831672e-05,3.222422143358661e-05,5.070139917453961e-06,2.046108900017907e-05,4.349952036843749e-06
28.771532159415074,20.318167545902128,-7.016491043072866,2.0319753232146828e-05,4.910969326643536e-06,1.5603192655933148e-06,5.077283558728461e-05,1.4977827866868017e-06,4.127020459851821e-05,1.9194784883677367e-06,5.855468452369876e-05,2.896496995550862e-06,1.0712317678780505e-05,1.6416568945916868e-05,4.510215706469214e-06,1.3584062075406099e-05,4.6251803144514336e-06
28.918119100038894,31.301684228099727,-7.885285953817071,3.858065942680253e-06,9.79166001392573e-06,2.3146301357554424e-06,7.864227420812375e-05,5.004282790564368e-06,2.285297548694159e-05,2.503576756133759e-06,8.249329841133686e-05,4.893522419037699e-06,2.6721244938315454e-06,4.31111757184664e-06,1.139902299524806e-05,3.206309410445188e-06,1.8428277047296858e-05
28.97268200002145,22.61684598205657,-6.475519811268681,5.069190027747345e-06,1.1648764244846702e-05,3.3946987322711902e-06,7.093319065850261e-05,6.472291286905295e-06,2.2845668322019056e-05,2.4450946633341506e-06,8.338413085122502e-05,5.394693450658778e-06,3.6453425800415486e-06,5.362933900839652e-06,2.179455295670776e-05,3.7025281852095697e-06,2.436585383973136e-05
29.100226699840277,14.183531335078616,-2.960239465338415,3.344629869307362e-06,1.3931746738824437e-05,6.807410624469794e-06,6.594531363125601e-05,2.538765003499374e-05,1.2340052337574443e-05,2.9052464585699866e-06,3.933259464463203e-05,3.658235029339307e-05,6.0193947441484196e-06,9.246076918452404e-06,4.126447351336501e-05,6.165378918142033e-06,3.6993142831436026e-05
29.202956462395377,9.168487598294655,-2.3407991651248867,2.510771651437613e-06,2.259570019644861e-05,1.5662651408574763e-05,6.0297973348895685e-06,4.107962443977333e-05,2.1469933180762737e-06,1.0301530838091386e-05,2.8735278874238063e-06,4.75612315487808e-05,3.4515265463506905e-06,6.456033122932521e-06,2.5538028347730727e-05,5.754098690426557e-06,1.703287112905231e-05
29.29358938743826,3.85381414904388,11.439754472146921,4.9297474411488305e-06,4.0004628868637075e-05,6.801309287007777e-05,4.07193756855144e-06,4.656554546636767e-05,1.9145573119493745e-06,7.350126908007537e-05,1.856440980492502e-06,4.002205132867066e-05,3.895093119331578e-06,4.190067076351659e-06,2.570940941847955e-05,5.464715304757005e-06,1.0141215237962466e-05
29.4024165001465,-3.192395687792139,23.822050385579907,4.6238471766869985e-06,5.833242779226511e-05,0.00013252985806985,3.2807753467186635e-06,5.016995394943572e-05,2.4566429481983436e-06,7.858488342468801e-05,3.068549497224246e-06,1.7736825407784843e-05,3.855130251949169e-06,1.0747793209992952e-05,2.5840462924724585e-05,5.582014887175426e-06,1.176620953962405e-05
29.48908050020691,-3.013666484263532,15.556562068710136,5.207961034995117e-06,9.037375946491975e-06,8.749368222462538e-05,1.9896892915536e-06,2.9275054927149485e-05,1.7124926731162442e-06,6.44602416218382e-05,1.782391206548224e-06,7.154268053870279e-06,3.687572242629739e-06,2.676140726040803e-05,2.147193166153812e-05,1.525460624617081e-05,1.1101984680121354e-05
29.61865179997403,1.6535768834709106,3.3375065857512167,1.6269716376686727e-05,3.799989678837413e-06,9.63922012410627e-05,2.4944074420437343e-06,2.239290649623033e-05,1.3587010045709496e-05,7.045586924841858e-05,2.75770131478552e-06,7.999324650987142e-06,3.858300532872782e-06,4.948064350131683e-05,1.5512109061662262e-05,2.9641390498682977e-05,9.525763508034438e-06
29.694603700074367,5.31493001780197,-5.903028637366596,3.020282386273405e-06,2.5149438310879484e-06,5.229454319497487e-05,7.524502336747345e-06,1.3618173262588222e-05,2.0511973067459305e-05,5.041050180314521e-05,4.383224248721083e-06,9.018198717870906e-06,1.2429347593878462e-05,6.84095551319543e-05,1.036849764771696e-05,3.945695413057228e-05,4.725514807921455e-06
29.79534815007355,13.651537466526811,-9.395375318038212,1.5942463977824897e-06,5.764051560600386e-06,1.5194356778704034e-05,4.8986065844381625e-05,2.475780730094576e-06,4.519880502536242e-05,1.3900034908907375e-06,4.153837916449716e-05,5.271714122465862e-06,1.6566276292967346e-05,3.314473539028264e-05,6.244166014249713e-06,3.048621886135022e-05,3.804982683083707e-06
29.89148039999418,28.306805093993653,-6.8073759544233585,2.2178995063893837e-06,5.2442169768783345e-06,1.4921411379367466e-06,4.414516571825739e-05,1.700446967688432e-06,3.8624352589011646e-05,1.7609716461127604e-06,5.30002698862354e-05,2.5378309416711546e-06,3.952822200659805e-06,2.3287450223294185e-05,1.1098746906342128e-05,1.0578239114949549e-05,8.649842400144373e-06
29.984608400030993,33.46061548327813,-6.118186880510409,5.33077195655065e-06,1.1552282088659422e-05,4.266856903345855e-06,8.27109379088693e-05,1.5987086973193688e-06,4.107236919896679e-05,2.2838720193167515e-06,7.194854403174092e-05,5.04095511397045e-06,5.572963801709159e-06,8.477676433190204e-06,2.6051327748729596e-05,5.601263645015097e-06,2.4309809618618435e-05
30.1055786999641,17.322873062667213,-5.437446975744285,4.9540287918539145e-06,9.389539694702e-06,9.367363365933598e-06,0.0001169068754208,8.99106529378228e-06,2.659895084859177e-05,3.0482522738554246e-06,0.000104061426424,1.605066334077763e-05,9.651010857286547e-06,5.794632315808368e-06,7.455503881091551e-05,2.772849679483296e-06,4.29412889826689e-05
30.203476800001223,5.976345967598153,-2.8200899372401644,2.171914230559371e-06,1.1152896165555165e-05,8.016290093686722e-06,6.287490103706823e-05,2.5500787725666857e-05,1.5843529989739267e-05,3.413898177032603e-06,4.010866761439792e-05,5.7190476946585165e-05,1.0517588737016132e-05,7.745739869339078e-06,8.640891412280442e-05,8.813335477355817e-06,4.272005596477221e-05
30.283489399938844,1.7883738354637884,0.9456283766635938,1.816713247540588e-06,1.589079435098347e-05,5.400632735687171e-06,2.4910334021567644e-06,4.748849690394211e-05,1.3224790249151731e-06,9.869939988873829e-06,2.1948743649909897e-06,8.436699667004257e-05,3.32814357814829e-06,6.931805367384052e-06,3.4135218080290735e-05,1.0110425140761266e-05,1.3265009645017545e-05
30.38457186263986,0.03859933538254935,12.671941085279956,3.662901580755124e-06,1.7967364448828517e-05,5.1386049500071006e-05,2.7516151143185e-06,3.1235739294750996e-05,1.6809976972662674e-06,4.248470436368546e-05,2.415181758931125e-06,2.4110551096793106e-05,2.2089788847354707e-06,1.2371967306192979e-05,1.859072537366806e-05,5.4598405261800255e-06,5.3344642678853514e-06
30.527440699981526,-2.277148188981743,18.18798552743926,5.130526548688262e-06,1.2312372583891243e-05,6.984120395407399e-05,2.0726194580587146e-06,1.6997122741251082e-05,2.0248504314847927e-06,7.4943259119396e-05,2.2693138254676817e-06,4.813663598799837e-06,2.487885631184193e-06,3.338263507833094e-05,3.1719676056132557e-05,1.6580469725141955e-05,8.428409483586499e-06
30.605572906439193,-0.5513880450990589,19.13107788357347,1.1343319959634074e-05,3.916665611051483e-06,7.183691788607149e-05,2.1197850382943763e-06,1.6170894135276456e-05,2.112897475808778e-06,6.147037151637877e-05,2.4517633009121522e-06,8.178118336697866e-06,2.1767462995155506e-06,5.59688850772968e-05,2.3251705792250624e-05,3.2668679246001045e-05,8.097416574322804e-06
30.66835340007674,2.3818194886435897,-0.6327027245668484,1.701354871815329e-05,2.4659272234394574e-06,6.226400763932862e-05,2.820036032162625e-06,1.1816667767779211e-05,7.775038006937555e-06,4.498998825569357e-05,2.3846277404214936e-06,1.0038176252061876e-05,1.2648459065470325e-05,7.08784707355806e-05,1.287018045635804e-05,3.622692268936174e-05,5.616530477554382e-06
30.800774418748915,9.237849557943864,-6.276917667836144,2.6075840032611376e-05,3.1200432470559644e-06,2.694352966564426e-06,2.7525788743312476e-05,1.449416968533379e-06,2.172444632317781e-05,1.6732000435575164e-06,2.6995371923606115e-05,6.159307608078213e-06,1.4659077750016494e-05,2.652721170680144e-05,7.095754633543226e-06,1.685098993314282e-05,4.372761251904064e-06
30.895580725045875,22.80989218402473,-7.095237336302683,3.9695239503408085e-06,6.118772173973435e-06,1.9755122155514124e-06,6.803635771204417e-05,1.2379093063879713e-06,3.9714351647396294e-05,2.0244984078730247e-06,6.22414339222773e-05,3.534643948611657e-06,1.2133933669709028e-05,6.67483942731848e-06,6.691150517393543e-06,5.9791287289764e-06,5.43404801742874e-06
30.988079924951307,32.17780713743727,-7.095015275706134,5.447240044934507e-06,8.46496211620645e-06,2.220380202879408e-06,7.617963262462431e-05,2.2553353788109723e-06,2.8311320932756157e-05,2.4544383331909502e-06,9.384529108770444e-05,5.454346523120957e-06,3.4127980221641745e-06,4.408311959107755e-06,7.878083217966263e-06,4.424923360579583e-06,1.7956343346328245e-05
31.123449600068852,22.501149082133832,-6.708635110630311,6.037504050928187e-06,5.6075697110697365e-06,6.0631338558651935e-06,7.174067547678597e-05,4.036289312577911e-06,1.80769013526564e-05,2.8898666066310343e-06,9.721346786034714e-05,2.154883829507269e-05,4.6143808089691565e-06,4.863319994331542e-06,4.6129399194184156e-05,4.404150636957288e-06,3.783471933216188e-05
31.21124700002838,10.413373345729363,-3.17230312405318,3.7628421263224815e-06,7.802255161906052e-06,7.697193382004997e-06,7.582562073554775e-05,1.8827769484900468e-05,1.5551844509757082e-05,2.6169307946125717e-06,7.512916539066897e-05,3.4697280189799635e-05,7.421134634873368e-06,6.23431271119333e-06,5.331490186040999e-05,6.312430786202055e-06,3.725677709161885e-05
31.295575254713185,4.899876891870846,-1.9648466888403127,1.8072532742397808e-06,1.2856812082033103e-05,3.7990988430309166e-06,1.9865633387961248e-05,2.890284685837817e-05,3.1528368186392673e-06,2.825229872678435e-06,1.7351330038581202e-05,4.8348124257208606e-05,3.677976169736852e-06,6.657744911388865e-06,3.7076970642948384e-05,7.97417389975349e-06,1.60094839101493e-05
31.397606756305322,1.2980760209652278,8.698915549325454,3.8125849711898158e-06,2.7274886035524766e-05,6.510159709933935e-05,2.159367487483884e-06,4.4684951694667145e-05,1.3844838582525276e-06,4.316913466016811e-05,2.077278005014116e-06,2.7797768707589836e-05,2.930501402370436e-06,9.101893704395934e-06,1.3358136615148698e-05,6.019243439586934e-06,5.804501785799541e-06
31.490626749931835,-0.4919539870235074,22.397627897092168,5.160218058908242e-06,2.356076142614908e-05,0.0001029063633536,1.921728037559456e-06,3.0312036218971755e-05,1.5222304462057402e-06,6.972852301454471e-05,1.9020491869737712e-06,5.384611859394368e-06,2.783676997811234e-06,2.551530338108159e-05,2.149427084769726e-05,1.3155844407107508e-05,7.697879597668759e-06
31.627461700118147,-0.2247840997519392,16.38153451826217,1.3508987374539914e-05,8.646049980165932e-06,5.8984572038615224e-05,3.9776854206304476e-06,1.2498699920389917e-05,2.067878131300857e-06,7.299238553657944e-05,2.444513850746801e-06,5.582357741485844e-06,6.197066175891906e-06,3.8602265699788486e-05,1.8569135628305297e-05,3.260424243658755e-05,6.936429330996209e-06
31.687865950050764,3.082791882607945,2.52929170106613,2.1413999586365472e-05,4.260607693321098e-06,4.561644483188631e-05,3.737834740064989e-06,7.367251410632663e-06,3.894315246916487e-06,4.134096246830103e-05,2.55954198562494e-06,7.797379641812372e-06,6.174112231221394e-06,4.1432794868259936e-05,8.479703867345664e-06,3.4750742318214714e-05,4.796994076087098e-06
31.79195270000492,5.687822947302653,-4.687057417323498,2.5334994737119263e-05,1.848952828468856e-06,9.84973461678324e-06,3.0702279713811794e-06,4.84072092826733e-06,2.14631281219356e-05,1.0274220958363695e-05,3.562981812778481e-06,7.496231302068176e-06,4.1995224146198096e-05,4.0149600277246805e-05,7.852417983864077e-06,3.170914612876862e-05,5.19213098135187e-06
31.90274799999316,17.184211309529033,-6.722567846183617,1.8705691549158848e-05,4.03324677303817e-06,2.270260340010562e-06,4.899290728645922e-05,1.3748038371268949e-06,4.2791902534321554e-05,1.8767711717895123e-06,5.867628483908287e-05,3.922984266188342e-06,1.101727610280876e-05,2.062085480346497e-05,9.793475109100324e-06,8.875613546288538e-06,5.931555247825396e-06
31.9699546560878,29.46238812751076,-7.390953380848775,8.546124174036629e-06,5.169562514644236e-06,1.999884811117721e-06,5.929814369169746e-05,1.3797452890977575e-06,2.999726726445697e-05,2.148380155792408e-06,7.575672310956253e-05,3.749212216671962e-06,4.032381828080933e-06,2.1224121263893955e-05,1.2188137790165465e-05,6.490182111058229e-06,1.0352912929859185e-05
32.10321317508351,27.875395569841228,-7.465075201299503,5.74729098004748e-06,8.223480442650957e-06,5.132402621846706e-06,7.874639094702781e-05,3.26364446751427e-06,1.7863288687857207e-05,2.0372099237204408e-06,9.279757823328469e-05,6.167271988482017e-06,4.178325280328127e-06,3.827105141904879e-06,3.603334522354636e-05,2.6811148771823985e-06,3.013319919901479e-05
32.164748599985614,13.985541965855074,-3.6999591319281118,5.798370169539949e-06,8.276283029088071e-06,6.403326936089456e-06,8.193638143923326e-05,7.3219817986541125e-06,1.714466653839403e-05,2.3879423050920175e-06,7.199960323695735e-05,9.105823683740011e-06,7.638645579291033e-06,3.8809800706890305e-06,4.951049241699496e-05,2.6117937062698333e-06,3.372773655230328e-05
32.31257930013817,4.424127513459137,-2.027739439173041,2.2025161682988145e-06,1.4818354446714003e-05,5.407484952120566e-06,5.114128196078367e-06,3.5258079142133995e-05,2.796726397557815e-06,3.7271140206180146e-06,5.372777681308249e-06,4.350070929344902e-05,3.921089749612226e-06,6.6017696810663825e-06,2.814663235908858e-05,7.033245123743844e-06,1.931306350042389e-05
32.391576418769546,0.9239813026123102,10.352803670955144,2.7003807477476833e-06,2.0191834422638404e-05,4.778014754179019e-05,2.09883950260578e-06,3.8020953565476084e-05,1.41068081814938e-06,4.4104658940449314e-05,1.8558524221916976e-06,3.5953805706179494e-05,1.1654699200561243e-05,6.968728219595638e-06,1.3498444532941495e-05,6.888737985354515e-06,6.7791277565723e-06
32.49818158138078,-2.34053634654894,16.37988669222723,5.384141442877899e-06,2.2759455318585302e-05,8.784991668027062e-05,2.178139005213166e-06,2.9738408707972263e-05,1.8667154816091132e-06,6.752197642418949e-05,3.157159317032398e-06,3.5682985778450475e-06,6.4977258188672964e-06,1.7172703038451583e-05,2.0783791922463357e-05,1.1785325341688241e-05,6.64515547785787e-06
32.59156664996408,-2.630894730152741,14.969680649244571,8.723284702028834e-06,5.749382927237087e-06,5.940626376608789e-05,2.707090877733549e-06,2.333712399161313e-05,1.4258568071433287e-06,5.676596379515426e-05,1.9459859992307845e-06,3.8038225392665177e-06,2.775900429309109e-06,2.8299724862093385e-05,2.0021354306167315e-05,1.7092477334710033e-05,6.4740703682337325e-06
32.68372418754734,1.9945929529851503,9.12445426978119,1.7286380013708073e-05,2.4297355990104666e-06,4.419156092920181e-05,3.372739867853605e-06,1.0526125640631688e-05,9.338399356390367e-06,5.091272134263263e-05,1.7538848048434498e-06,5.826576691040253e-06,2.114865434191258e-06,3.938879046279663e-05,1.7066880859817767e-05,2.9553012805946624e-05,5.380315960399562e-06
32.808766600093804,5.5422881408866616,-3.984280800727032,3.659420029615754e-05,2.01235018507041e-06,5.383118293378213e-06,3.6507533815056368e-06,2.8344355199524662e-06,2.3056233440653575e-05,7.377597297087769e-06,3.870853965578405e-06,7.039673936670227e-06,4.089162558096583e-05,4.907197976642429e-05,6.005087592567279e-06,3.81289449999773e-05,5.137687940659623e-06
32.89367630018387,18.79536388626208,-7.184085661004626,2.413668146178572e-05,3.287990559336628e-06,1.4201165806874451e-06,3.137155646418253e-05,1.3885211927989415e-06,3.93588835224106e-05,1.4319912615890294e-06,3.269569987934e-05,4.285572999842096e-06,2.939751357254997e-05,2.5270258866552052e-05,6.131211806033967e-06,2.136164799751452e-05,6.298314242467276e-06
32.99374610011,29.42141455708993,-7.375609996109818,1.7284657327506075e-05,9.27808209797009e-06,2.43224328965455e-06,9.320458740195336e-05,1.3057891521939264e-06,4.617437493080316e-05,1.6373386726105251e-06,8.665588280192559e-05,3.6366147449746894e-06,3.652855096613093e-06,1.0309763874352512e-05,1.3829054620313415e-05,1.384889292639568e-05,1.216112031697435e-05
33.12928899994586,27.50639316196492,-8.022766231574924,7.084263501022417e-06,6.450479911529039e-06,2.9065008781011383e-06,6.978255196636585e-05,3.6511121344188542e-06,2.222013125899473e-05,2.3102818382129395e-06,9.00558855267226e-05,1.7976667218144997e-05,5.349499455557932e-06,6.088193128977012e-06,3.293069801381238e-05,3.78643977949321e-06,2.888605387506602e-05
33.16496808140073,15.240278578857126,-3.2777420041870684,6.647279689543788e-06,7.0492899637782654e-06,3.6586387529393197e-06,8.244643225422172e-05,1.0857514201419363e-05,1.8108973108604374e-05,2.4059018114189468e-06,8.886841196673728e-05,1.795486728974234e-05,1.0480756716822927e-05,5.373837306063494e-06,4.73903396646029e-05,3.9534524397423256e-06,3.129407236901863e-05
33.31882890011184,4.071982009299458,-2.546952738935902,1.529698579335643e-06,2.3174854859198293e-05,4.6549730706539554e-06,5.368390776440621e-06,3.0084577124667966e-05,3.798991175773582e-06,3.4942288172414927e-06,1.0081846326729967e-05,5.100736133218593e-05,3.900356839265742e-06,6.9296443038420405e-06,2.953826750161884e-05,5.449233974464303e-06,1.8026127155059587e-05
33.387935300008394,-0.0275351114463182,8.675692242964786,2.982646143368348e-06,1.4265227958940547e-05,2.145280104388305e-05,3.0019204779303683e-06,3.146889907221957e-05,1.4995006711235603e-06,3.200884190503715e-05,3.083248032081502e-06,4.4222353817851615e-05,7.882595640306243e-06,5.155134947953396e-06,1.863804366117304e-05,4.530934649472243e-06,1.0896227321446637e-05
33.50596790004056,-1.816851997836232,13.091932126924627,3.534759916202552e-06,8.347528509597812e-06,6.900441443145189e-05,2.4293335183210594e-06,2.9950436646020532e-05,1.5697306735217771e-06,6.544280188840166e-05,2.6552386852366246e-06,2.042404844465211e-06,1.1868919942940312e-05,1.436995979264035e-05,2.300304854871738e-05,6.007613989079071e-06,8.603009989262136e-06
33.59420853771735,-2.5232931330611903,18.15972655903788,4.025647334123632e-06,4.878949515000217e-06,7.724478524853942e-05,1.967640717491908e-06,1.6288750595641526e-05,1.4900477343685509e-06,6.343301049164557e-05,2.0393627804233e-06,1.9412971594167626e-06,2.5595093557939303e-06,1.427964600215157e-05,2.202988408380724e-05,8.652079408237699e-06,7.298686394419579e-06
33.69057150010485,2.606107873383523,7.461046287811491,1.0919028578056728e-05,2.033305034523577e-06,7.347181868322228e-05,3.2827277730497867e-06,1.395273054149853e-05,3.4097925751418693e-06,5.309175898942525e-05,1.955196371700328e-06,5.5994976580548e-06,3.365138036877097e-06,4.171091685753349e-05,2.5265227456901e-05,2.4002760821535728e-05,8.872731910280935e-06
33.79017680010293,4.568620418927611,-1.6961492974382175,4.369777858455085e-05,1.8386112070675936e-06,3.35680311307189e-05,3.2779629660238168e-06,4.622326108418483e-06,1.903854289761358e-05,2.832918297239122e-05,3.727700499767849e-06,7.755317515515053e-06,1.884921903474611e-05,4.46219092181418e-05,2.217546034619193e-05,2.431409029085534e-05,1.0712030387993196e-05
33.88932257483248,12.7989727698065,-6.629095408007467,3.857348308703425e-05,5.138208689294136e-06,2.1310120270179623e-06,4.313137997239547e-05,1.6271962969500565e-06,4.229145383618162e-05,1.7322789958899223e-06,3.91792354933272e-05,2.8318449738861296e-06,3.776113586385648e-05,1.2390287485990253e-05,9.179619987513903e-06,1.2610494322548331e-05,6.1003106254800015e-06
34.010741731268354,21.39198504951343,-7.588057207019903,1.562840117157739e-05,4.625249429311883e-06,1.7390600836152186e-06,5.487230828744136e-05,1.357570679045834e-06,3.432643539554537e-05,1.5889508760888297e-06,7.869119428861026e-05,3.4293907373965384e-06,6.21509438543786e-06,9.694538148027672e-06,1.161273080011283e-05,7.534371143208297e-06,1.628954108888138e-05
34.10307683120482,29.654857687792166,-8.793671181621455,6.857006547512812e-06,8.411737734735586e-06,2.544873301255586e-06,8.853124151944382e-05,2.3008926247247068e-06,2.8699658581182188e-05,2.1651434961488703e-06,8.624594326153285e-05,3.339794158324274e-06,7.901208382116197e-06,9.84468736298698e-06,1.0145896637055988e-05,8.950788039177665e-06,1.402753197802839e-05
34.19123364996631,20.524309835697466,-4.304313098858133,5.095648984979142e-06,9.33674980426899e-06,4.634328847828048e-06,7.316445896977707e-05,1.547868358869937e-05,2.210167695255849e-05,2.508912352722812e-06,9.268563228299812e-05,4.027625082984647e-06,4.000287449038193e-06,1.0775451032104292e-05,2.2458827684077875e-05,7.67703148181634e-06,2.097114660492494e-05
34.29357790003996,11.724478039147996,-2.734435872423325,2.7010400264013083e-06,1.1725528616539363e-05,4.613129119460486e-06,5.2919964235208286e-05,3.127558394743572e-05,1.0345699866869441e-05,2.5908196186058908e-06,5.184515271896924e-05,5.07326885469388e-05,4.552325773419176e-06,8.134915429943541e-06,4.423727480396786e-05,5.985335907008854e-06,2.687784358823973e-05
34.394653700175695,4.379268419666024,-1.1196791685367329,1.84268511648181e-06,2.0369320059727247e-05,6.311551050623778e-06,3.525044403164605e-06,6.335456903938688e-05,1.5205842680947072e-06,1.106027941227838e-05,3.841211843626782e-06,5.986664388337729e-05,2.84938936400802e-06,6.4888015086291e-06,3.1988442376421735e-05,8.709652493193922e-06,1.6651543098941318e-05
34.513112300192006,-0.1518948557381656,14.81547520605059,3.809526753171725e-06,2.919614275487357e-05,7.36679656287728e-05,2.432429976958891e-06,3.960149095274773e-05,1.5676521668402846e-06,3.960620975549412e-05,2.3529398881376774e-06,6.552063969817508e-05,3.038860989020722e-06,8.150979930165488e-06,2.9979098796032877e-05,8.814989918155525e-06,9.038620045160415e-06
34.59606969996821,-2.3138054504983643,22.5765253371802,4.0765148700187895e-06,2.252157820475057e-05,0.00010597243794205,2.63452701660298e-06,2.766184582934523e-05,1.384470988790656e-06,8.125228509279997e-05,1.6933793387805734e-06,3.310210767778328e-06,1.9765777038689063e-06,1.4528792030296255e-05,2.1463584742315753e-05,1.1573706989140897e-05,7.206436005330678e-06
34.68320719990879,-0.4705353299290198,18.100915535621795,6.807283631116617e-06,5.413505481941611e-06,8.004305276264646e-05,2.618553969923501e-06,1.7345757681175326e-05,1.3455228497713826e-06,7.787048761933861e-05,1.8635383298277348e-06,3.7301148150363103e-06,1.8294997993068752e-06,2.7191714751258672e-05,1.9225754225346992e-05,1.8582156341433424e-05,7.321173048025001e-06
34.8220015874831,4.118470411752947,5.662106194142172,3.1622360485457026e-05,2.1063786518273746e-06,4.848809028662796e-05,2.1645438354324214e-06,1.0137828114250304e-05,9.365978759255734e-06,5.375367420220509e-05,2.3506668906723393e-06,6.214912993568383e-06,3.1561870487390023e-06,3.9966076050266226e-05,5.186513500361132e-06,3.6443876129768307e-05,2.8948710464915157e-06
34.87913570005912,4.427176265714241,-4.590430097770361,3.342950957887398e-05,2.067484259954548e-06,2.2818954454956216e-05,3.474467451933482e-06,3.426606032646177e-06,1.465008459016414e-05,1.8638608921072863e-05,3.5081705692514324e-06,6.109805122680718e-06,2.3649939606890334e-05,4.136114915776681e-05,4.909862967998972e-06,3.179853723185714e-05,3.6205065673030736e-06
35.009603199898265,18.551784916606472,-6.9123133972352315,2.530088908745336e-05,5.576628317214784e-06,1.9479593818337254e-06,5.135492301922316e-05,1.4061595803399686e-06,3.1878584450580816e-05,1.9176188373687318e-06,7.036087471455414e-05,3.157151738015878e-06,1.3722004134857436e-05,1.8703853812549823e-05,5.042038431363523e-06,9.28666571857865e-06,5.020623669079746e-06
35.08605765004177,28.70983070600068,-7.025501891116372,4.40703446264267e-06,5.706407183909966e-06,2.50233177324919e-06,9.47538594112368e-05,1.5031873502487227e-06,3.196902977031182e-05,2.4892493428713228e-06,9.440202289234616e-05,3.0395514391626873e-06,2.6353296771558125e-06,8.032827425706304e-06,9.16852051814852e-06,4.995203104842447e-06,1.384299476225243e-05
35.17914622032549,27.491978213200518,-6.655283706820192,4.808550166948309e-06,8.167038191239252e-06,2.9746533415815035e-06,0.0001106415397623,2.8757879971907476e-06,2.4330268740765e-05,2.2184987896375153e-06,0.00011164874008635,1.6461784791794014e-05,3.2180332100009914e-06,3.2263093931950196e-06,2.0234400690524587e-05,3.3784654857992653e-06,2.0179395297087955e-05
35.29106750001665,13.275886969905244,-3.965260338397666,6.7346970326108974e-06,7.1564899960664495e-06,7.177459599344278e-06,5.9804767693632336e-05,6.944881861957705e-06,1.839136489866631e-05,2.7133183886961376e-06,8.414823493086161e-05,2.253326843552815e-05,4.858362411723898e-06,5.928188675397913e-06,3.8886329346682176e-05,4.875549474198976e-06,3.3013681209848374e-05
35.39240330003668,3.8199243677031305,-3.4147295089548573,2.0017846029707115e-06,1.0840306198061213e-05,4.363472120081893e-06,7.978625543843465e-06,2.907202018147919e-05,8.25322769791642e-06,2.457833343273217e-06,1.7150274255155004e-05,3.985743087290277e-05,3.976952570784004e-06,6.123818934188915e-06,3.6245583449937136e-05,5.375805458129665e-06,2.4908257944034963e-05
35.5073122625472,0.2929854573967367,7.146628275300002,2.546821478570358e-06,1.3502154243681914e-05,2.746335227449721e-05,2.309636487900744e-06,2.108958942647537e-05,1.3751255490293785e-06,2.6179105318003567e-05,2.089664755523486e-06,3.092231930881775e-05,1.4543463324031667e-05,5.620904093546804e-06,1.3916981167821266e-05,3.788452036685224e-06,5.2199253083424975e-06
35.58136995008681,-1.931912818838696,13.745583342536715,3.783633830802921e-06,7.370950431533181e-06,5.556087694060477e-05,1.8920654093505616e-06,1.890330024203712e-05,1.5632483395433918e-06,4.665879878665323e-05,2.2856867632315936e-06,3.5808164270353383e-06,1.5843057298727043e-05,1.616717390917023e-05,1.579916368620035e-05,8.00704401306771e-06,7.170530787198309e-06
35.680428418912925,-0.05415517955770105,24.08254288463945,4.79081892372383e-06,6.420594298828244e-06,8.693675418880003e-05,1.940643430180986e-06,1.99633383792466e-05,1.4405010630875328e-06,5.904397574325196e-05,1.9827320354613906e-06,3.7537034129659147e-06,3.100831273358667e-06,2.4790974526794844e-05,1.84278503210256e-05,1.3652765525197602e-05,6.336591689687572e-06
35.804673587554134,3.3559978257351286,8.73986886385708,1.1936771370969903e-05,6.691407307946526e-06,6.18922774490383e-05,2.8311270636575994e-06,1.3003612346645643e-05,2.5407349697227544e-06,5.227873516596465e-05,1.8811795690169248e-06,7.135328797346804e-06,2.453025456925085e-05,4.235528366876052e-05,1.2873807693534488e-05,3.186304537279029e-05,4.697728508739759e-06
35.87812412518542,3.471284945141535,-0.4625015348246881,1.6511010383936934e-05,3.598250727066113e-06,5.089602420459727e-05,2.7238580289060573e-06,7.852573322805518e-06,3.166289772239413e-06,4.604948668377707e-05,2.384934969803248e-06,7.534455612035863e-06,2.2287132161476856e-05,5.074886977769396e-05,4.971403959248833e-06,3.694893320873557e-05,2.8359344617297365e-06
35.994681500131264,7.511594253514733,-6.778429545435529,3.0154105677979943e-05,2.1477945305852136e-06,1.7390413964653176e-06,1.5524207923200988e-05,1.4806301514138413e-06,1.9900939964940436e-05,1.4458990726192815e-06,1.2760345426372283e-05,5.55317840355109e-06,2.044567749277687e-05,3.743391043859118e-05,5.7434712330804235e-06,2.626595895339085e-05,3.86508589876078e-06
36.10306034993846,22.371828456892004,-6.673717191058059,4.1031980292302535e-06,5.969674957421549e-06,2.2336112180004395e-06,9.141931825867804e-05,1.608023525166328e-06,2.709232155221174e-05,1.884816998111688e-06,9.267510291530932e-05,2.8810282327111523e-06,4.989301335674774e-06,7.651768910212163e-06,1.3703116085592234e-05,7.01761005992789e-06,1.010284870684437e-05
36.17234167491552,30.99629864915667,-8.595308157963872,4.069207578658339e-06,7.751104954759735e-06,2.699016760312351e-06,0.0001023044160538,2.12165336022894e-06,2.731500703475737e-05,2.25728878120558e-06,9.357237549604544e-05,5.6934123453524815e-06,6.121413157553396e-06,6.778568739778765e-06,1.5560633090518933e-05,4.848706819637916e-06,1.774920733974122e-05
36.31913360010367,17.782956528307885,-7.500309922680047,4.615523534263613e-06,7.951225412532995e-06,3.4053967997876496e-06,9.725114904239815e-05,2.63690819565118e-06,1.6599351012960266e-05,2.1113845470450835e-06,9.04430073812861e-05,1.0906672074522925e-05,7.586415876133907e-06,7.529364837981769e-06,3.607418926597555e-05,5.81272576481993e-06,3.946448400491591e-05
36.3773180001881,8.069360268240146,-3.9073498550561676,2.6451189859522235e-06,9.60035432913444e-06,3.924802881616601e-06,3.962165315733553e-05,1.5637256728722495e-05,7.857256345238774e-06,2.1430002890385084e-06,5.4041269253439755e-05,1.714592922782084e-05,6.854319786792842e-06,7.320340257823527e-06,4.489399237114348e-05,5.9320293271607545e-06,4.038990333901291e-05
36.50024602503981,2.039403525771434,-1.188810407521676,1.5771298396861382e-06,1.7715032005036122e-05,9.133168063444813e-06,2.102608843694998e-06,4.114894064134388e-05,1.760235197522671e-06,1.4441814104523386e-05,2.2436176242912573e-06,4.276433399221632e-05,4.208085064059756e-06,4.776753354861659e-06,1.6470526665066003e-05,4.105283873068952e-06,7.130218757278935e-06
36.597015762585215,-1.1595738459953004,11.91216752547351,2.7305284941143636e-06,1.7702239386152076e-05,5.126223106991859e-05,2.261435273028506e-06,2.663273558079613e-05,1.8090738080895695e-06,5.1931886765419315e-05,2.1770402933025017e-06,2.1301838866536024e-05,2.272347487849032e-06,1.0787475388884738e-05,1.037891042487093e-05,5.293677833511183e-06,7.091244776467544e-06
36.69415489840321,-1.7896021146106653,20.898252862034568,3.9271303929695285e-06,1.4886221208078344e-05,7.428153179773664e-05,2.024527137331657e-06,2.0523551189252037e-05,1.8975266780860666e-06,5.0347372214295455e-05,2.3323888728953106e-06,3.988140669475279e-06,2.331435176369691e-06,2.0525948701114254e-05,2.0213376532490762e-05,1.194440053797629e-05,7.168854244779892e-06
36.77637340000365,2.374286298065368,14.225172866468265,1.025746737998521e-05,8.297697640680522e-06,8.877827695135837e-05,3.3041448742665983e-06,2.3415061749864823e-05,1.9687792969604447e-06,7.987079274100799e-05,2.1026829794467933e-06,5.133178373062578e-06,2.256410014963735e-06,2.8469544549302285e-05,1.7671473018640032e-05,2.040368109012683e-05,7.394634348219109e-06
36.86386903130915,3.621874036895707,1.4525709048557536,1.756114777850335e-05,5.327634299696699e-06,8.439685030678928e-05,3.7132132605032914e-06,1.2290812088148688e-05,2.856187225935671e-06,5.8897381964689995e-05,2.837916636386036e-06,6.306781266637625e-06,8.451370636473321e-06,3.8988959716128874e-05,1.2036838267554329e-05,3.113083410417374e-05,6.180405857970881e-06
36.99131821875926,3.833657949057703,-5.511903165810708,2.0905622543832556e-05,2.9576576261362786e-06,2.5614095209467184e-05,4.344115212200951e-06,5.247792455549102e-06,1.1870996389153629e-05,1.2793674263718898e-05,3.048888030655863e-06,5.584245250821993e-06,1.6161082992709164e-05,3.27303351032727e-05,6.996483774689569e-06,2.8196611094743675e-05,3.1997587736005164e-06
37.1020479000872,15.682016343166591,-7.074624235934715,1.3419787216113945e-05,5.263779267424584e-06,2.6817983404747563e-06,5.444644277731567e-05,1.3366237363393555e-06,2.8184395484308666e-05,1.9889049433226395e-06,4.925533328498441e-05,2.3920285605722465e-06,9.617153569248362e-06,8.614072892161212e-06,6.543635445928622e-06,6.5488590595231885e-06,6.557988131361443e-06
37.18809756252449,33.270672088864956,-6.5954135945622205,3.4753105301090088e-06,6.966232346680404e-06,2.1755720980940518e-06,8.224989782571013e-05,1.1682310216149572e-06,2.3174557421893127e-05,1.956230958092622e-06,9.195088316512545e-05,5.5639649829553225e-06,8.399403288908408e-06,1.0396366715573535e-05,1.3625622593124436e-05,6.940404171131766e-06,1.5200581507320713e-05
37.291311706299894,33.22783099866995,-6.2222765701461,5.589151303670709e-06,8.971692960762457e-06,3.9327196688510735e-06,9.47586411983305e-05,2.687509066471316e-06,2.278055860196937e-05,3.0163579666436474e-06,0.00010458481916259999,3.2493766903466293e-06,6.332769433776184e-06,6.834326123542081e-06,1.6869463682632587e-05,3.1599126728961594e-06,2.308388551006858e-05
37.36394607822877,13.223304688620036,-2.77378071539213,7.605507775286416e-06,1.173770290359879e-05,3.880924629739317e-06,7.200048791195642e-05,3.459355041592128e-06,3.497802214698438e-05,3.177592552462872e-06,9.66549563796609e-05,5.01475463388078e-06,7.739880946434807e-06,6.294169903455852e-06,5.07617219007107e-05,2.481225088092097e-06,3.575821720001422e-05
37.49239777505864,4.174423279247158,-1.7108555574190834,3.1494795562337845e-06,1.5151181531209314e-05,7.313615737364026e-06,2.9823012512489253e-05,2.609482740987615e-05,5.143786241615729e-06,3.0600291911614958e-06,3.750510022678221e-05,4.497820494225176e-05,7.382266595538231e-06,8.522562043289909e-06,5.81138180941527e-05,7.40659286634688e-06,2.596640756547819e-05
37.56664300011471,5.582786444369939,5.63030384562398,2.696234066099902e-06,2.0277107194575894e-05,1.4691061951712195e-05,2.329217685515023e-06,5.2100631341189505e-05,1.5668039913470986e-06,3.786262548089009e-05,2.1769643349447163e-06,5.116759819031326e-05,2.625549390902905e-06,7.549125321064473e-06,1.9417045257744754e-05,6.578597547917784e-06,9.688159607431983e-06
37.671223400044255,-1.2271198467773037,16.885370113447948,4.622024358064118e-06,1.84773869721383e-05,9.885337190240762e-05,2.340763009598216e-06,3.612472289501824e-05,1.5273241007566617e-06,7.927534448641661e-05,2.193985262533335e-06,6.830298829302559e-06,2.0932934505497588e-06,1.6963736319100235e-05,1.8410157179767562e-05,8.661286463998138e-06,4.656009904405799e-06
37.78923960018437,-2.486243391534174,18.553492663247777,9.677880412683837e-06,7.33682555391668e-06,9.939933372129629e-05,2.3906220843811823e-06,2.288131950856488e-05,1.3932859829770792e-06,6.899765198483926e-05,2.157576464436036e-06,4.506732400698305e-06,2.0600012300455926e-06,2.7549687073202816e-05,1.959840281043808e-05,1.806706972435373e-05,6.944978215758339e-06
37.88303689996246,1.228086930534477,8.334774575217232,1.7834182995202578e-05,1.9880327957703717e-06,6.529297496569371e-05,2.5141740292666143e-06,1.5759756432952096e-05,2.136875123848899e-06,5.939668309632039e-05,1.834812371859133e-06,5.716047826535078e-06,1.905112976159728e-06,3.2030266889836325e-05,1.0050234940717882e-05,2.852500965468591e-05,5.932949148861723e-06
38.008362200227566,5.214561393128991,-4.108121435455969,3.738601009091501e-05,1.8124557894712252e-06,2.205720955095816e-05,4.104482207302388e-06,4.867593977037058e-06,1.8693553454318144e-05,1.761408527842633e-05,3.126348190713439e-06,5.2872013486568e-06,2.1059657772888423e-05,4.224769023542321e-05,4.574309293106817e-06,3.641504324270574e-05,4.039036690193479e-06
38.07682180008851,19.527217287932018,-6.422412418140446,3.330580622186326e-05,2.0999206430587464e-06,2.6893513864080294e-06,2.1852259783618628e-05,1.4549456690110396e-06,2.409401809478611e-05,1.6360804132613934e-06,3.390071022495899e-05,3.434348753208888e-06,2.33539203980127e-05,1.6733422829252037e-05,4.619844032055891e-06,1.4466012699977929e-05,3.9192607444183595e-06
38.18889500002842,32.05896141538632,-7.392419067160603,6.365393751933517e-06,6.996558914887414e-06,2.353525268417798e-06,9.966817069475532e-05,1.2321379085047333e-06,2.85597355030268e-05,1.912875061589108e-06,9.60839484629145e-05,3.4653004657766047e-06,4.787547193186888e-06,1.153849495059975e-05,1.4339467599921145e-05,9.79069101400954e-06,1.7228522062626007e-05
38.33070719998796,29.127093940863087,-7.513590536046514,6.812309788540623e-06,8.710195532311384e-06,5.007966453347248e-06,9.817260400914008e-05,3.0660512361016625e-06,2.688894689811045e-05,3.0070022381622475e-06,9.654494144017848e-05,2.398502344693e-06,5.740998952777475e-06,6.472392939031967e-06,3.367881040096999e-05,5.567005027995987e-06,2.9056712699222596e-05
38.37501410010736,14.594522177205889,-6.0622417582775405,7.468339484132121e-06,9.408796010222938e-06,4.228284774270378e-06,9.772764836854896e-05,3.435714740650087e-06,1.8114931931836757e-05,2.719073486179597e-06,0.0001050130014108,4.46879549733996e-06,7.879815096811129e-06,7.72681278499123e-06,5.6174223149597326e-05,7.014680342922708e-06,3.6251504039767175e-05
38.50597699999344,4.895793611543079,-3.882410814139711,2.800254604149379e-06,1.4122460818073444e-05,8.028683310458919e-06,2.058018884111474e-05,1.57603521889546e-05,5.463403689764525e-06,3.0908776590256192e-06,9.453562259787815e-06,2.6208887758265185e-05,5.013957141345035e-06,6.423576261426107e-06,4.357282127916841e-05,4.733351967887817e-06,2.7161798510768185e-05
38.582146099884994,-0.3501925218375876,3.2950352335039765,1.9308448265124143e-06,1.6865170080840533e-05,5.398746029526467e-06,2.3052813053960764e-06,3.150737580341429e-05,1.4774707701693586e-06,7.915844056435544e-06,2.192535746024348e-06,3.1848111941122384e-05,2.3316423743136788e-06,6.01609750339709e-06,1.895432490640568e-05,4.887694930418995e-06,1.160763173042988e-05
38.6654152875999,-2.5796214066224925,16.66017962034386,3.4625049714071376e-06,1.1344445117887038e-05,5.3986577331689055e-05,2.108304909244898e-06,2.74082463494746e-05,1.2854665166336322e-06,4.521023244575037e-05,1.857943112981438e-06,4.2475382742107445e-06,2.0827591352031383e-06,1.21947406900112e-05,2.263967332705123e-05,1.0888567295717312e-05,1.2592237418701571e-05
38.814194500097074,-1.4384985279403368,18.47092184013678,5.828740007965874e-06,3.961125759798033e-06,7.605120928102264e-05,2.0863563375149197e-06,1.7919847073170944e-05,1.4406265971726148e-06,7.824733938403947e-05,1.9887023149893525e-06,5.890165590601907e-06,1.8821558768802108e-06,3.1625509425864675e-05,2.373434354048049e-05,2.2208403469359232e-05,9.28592651878455e-06
38.91802302503493,1.6580867469308311,10.842727991417387,2.5339870040399493e-05,2.8095441817740467e-06,5.084458499008355e-05,2.4035518076500384e-06,1.0921865166367954e-05,2.8225783661516494e-06,5.397327601682732e-05,1.9052889938789017e-06,7.415087682629016e-06,2.068630589038105e-06,5.692644019498289e-05,7.666479980475625e-06,2.8247231169496552e-05,3.4382332486303944e-06
39.02133950009011,5.843244805985586,-7.228534146198185,2.96049489380322e-05,2.201819138721779e-06,1.1552628887683378e-05,4.4217421229618e-06,3.9782809250242334e-06,1.9745487568909998e-05,1.5565154061999856e-05,3.1363153280696537e-06,6.492966789479546e-06,1.4564537657387197e-05,4.513130168109929e-05,6.128893039428817e-06,3.019357646745238e-05,3.7791387933060317e-06
39.09967040002812,19.37181097245632,-7.641907116006234,1.2745991091573618e-05,3.7346948861916784e-06,1.431730441730908e-06,3.07343181788678e-05,1.2704598442884604e-06,2.3257518940105844e-05,1.7738014040804898e-06,4.115488076986616e-05,2.6853191453369466e-06,1.5353696367732806e-05,2.236734725697261e-05,5.77261770863953e-06,1.484488097708504e-05,3.7893717077745215e-06
39.17481869983021,29.40880905980975,-7.370949463898855,1.0890875275269168e-05,4.984811545996645e-06,1.8463105398882693e-06,5.50120133466441e-05,1.65509161005026e-06,3.164052473385401e-05,1.6335202414470368e-06,7.048688390577398e-05,3.049759545352402e-06,5.608513594420375e-06,1.9860913099230205e-05,1.6071385173701903e-05,1.0531492897479443e-05,8.892086118659564e-06
39.30858660012018,33.46061548327813,-8.858713505839598,5.226435047767732e-06,6.60402564303373e-06,3.1387077011130196e-06,9.084022863734231e-05,1.7131681215220927e-06,3.4840196440425055e-05,1.969193340114245e-06,9.76340151791329e-05,1.673350446863783e-06,6.36861575678873e-06,5.7882408214851225e-06,2.428643076443842e-05,5.378217351444621e-06,2.3514604543932827e-05
39.385368500021286,16.50205328559761,-9.60340139793236,4.475277409981393e-06,1.1155005347043123e-05,2.799451750183545e-06,6.414022573826268e-05,2.190224100866046e-06,1.914661109121044e-05,1.5691995127510811e-06,0.0001035582397035,4.579484642989265e-06,7.648047291970806e-06,2.8239211023322557e-06,4.690198458048399e-05,2.32313758751826e-06,3.45793102313671e-05
39.483776635839604,6.213529876104113,-3.673331234083454,1.3856137419489298e-06,1.4726317006456273e-05,3.579581426549855e-06,1.6097936786023985e-05,1.2141242293299581e-05,4.675834470294098e-06,1.7449179551133608e-06,2.42915658123081e-05,1.3141057872215954e-05,6.1150648165728335e-06,3.177011999991909e-06,3.6007800306233755e-05,3.193876059025761e-06,3.629543169596313e-05
39.59794825001154,-0.1003994405574424,3.049546586898546,2.0632806392266355e-06,1.3920406865668146e-05,1.1578635144549063e-05,2.542555672382384e-06,2.7417348977365206e-05,1.451373422117611e-06,1.7898700400860336e-05,2.038619132830368e-06,4.8304644758461563e-05,2.0652168893916243e-06,6.151969134933456e-06,1.7873424660445595e-05,6.5511950588225305e-06,7.056142421225317e-06
39.69292033754755,-3.2817999915071017,17.030173322062478,4.179183325585017e-06,7.628022220089161e-06,7.901234339622333e-05,2.0059716066769225e-06,2.289089692138504e-05,1.381948364169248e-06,7.312772099200876e-05,2.459179866984076e-06,4.712661814693183e-06,1.911383996251448e-06,1.4695715571800968e-05,1.8413156873787965e-05,1.3375897931383826e-05,8.69078482633572e-06
39.81065590004437,-4.737461255256726,19.323428999122022,4.657242537830417e-06,1.7114957637288723e-06,6.701504925240339e-05,1.8820449594303748e-06,1.718135954717149e-05,1.2808935731719813e-06,6.82849467290532e-05,1.592456504441946e-06,3.88306399974108e-06,2.3241477328515814e-06,2.9529470165584025e-05,2.5338669099017776e-05,1.840717192289192e-05,1.1622046551699532e-05
39.89327400003094,1.3699381961583628,4.679285284332551,1.6643336544858425e-05,1.5678485176323588e-06,5.477158735955749e-05,2.520442382667808e-06,1.4529115413246173e-05,1.998060793119708e-06,5.417201707795772e-05,1.823900773986408e-06,7.047180045165768e-06,2.1330512586375367e-06,4.327519888361488e-05,2.8182376728315876e-05,3.437503414050153e-05,9.722880316021343e-06
39.9925988499308,3.574718324932224,-4.232054831674665,2.3942238515170632e-05,1.856741978109152e-06,3.15578516507571e-05,2.5869801880347606e-06,4.920201657975536e-06,6.902493979723805e-06,2.012545049961528e-05,2.2198250330302687e-06,6.52225917160804e-06,2.9756144007187965e-06,3.970646126297184e-05,8.494017703341679e-06,3.809748923479596e-05,3.967976934065669e-06
40.10653359990101,14.588980209925825,-7.116714536461645,1.8458120334933385e-05,5.2599600559962735e-06,2.46071425887455e-06,4.53746071033923e-05,1.550412823519205e-06,3.7796412046693303e-05,2.686191688641786e-06,3.213969058218713e-05,2.519490498436745e-06,1.2035150026498283e-05,1.8959466822502542e-05,4.4016903671216975e-06,1.3228962891324247e-05,3.380315788743232e-06
40.178961899946444,27.028718154809006,-6.194920815442853,7.164479394786654e-06,7.278540204508483e-06,2.3387314397756848e-06,6.832598611515982e-05,1.787574984228812e-06,3.724051283834147e-05,2.993299636824628e-06,5.871556073535559e-05,2.5428037209222007e-06,6.8911921910022975e-06,1.7821054054839805e-05,9.271879552447898e-06,1.4292051790532937e-05,9.567972808375926e-06
40.31304449692834,29.48121893271535,-6.73595467575278,1.9339599555138232e-05,9.368710271552725e-06,5.66346471658073e-06,8.919680858159472e-05,4.195191940853074e-06,2.3567272011611294e-05,1.9057912457478716e-06,9.569691996666853e-05,2.5758226944415997e-06,7.583512919957096e-06,6.258042856102717e-06,2.089060875466163e-05,5.790617886257458e-06,2.032241377444648e-05
40.3833464999916,14.445785036799968,-4.83895410311824,7.852511912957645e-06,8.205354220962056e-06,7.227370663608975e-06,7.142209918218472e-05,5.750119895087529e-06,1.8525974294901037e-05,2.4966753705768404e-06,7.773603538566784e-05,4.370488336721272e-06,1.014977238597618e-05,5.61786987787958e-06,5.3527490373327445e-05,5.3280212368587966e-06,3.4852054135484735e-05
40.48790712503251,8.826504048389776,-3.204956320616518,4.331259176974715e-06,8.240550623996694e-06,7.83676704862972e-06,3.65241830554053e-05,1.4997877028154758e-05,8.473271263428596e-06,3.007392189350215e-06,3.825064078651107e-05,3.1285857883642776e-05,7.522379370087964e-06,7.873143180814563e-06,4.5570066005705234e-05,6.179290466477081e-06,2.9508414338859825e-05
40.59725823753979,0.3923579945655793,-0.8430497257904093,1.842708101112628e-06,1.7331698962260165e-05,5.798028462437623e-06,2.2970214116921645e-06,3.522414745025665e-05,1.4320969565257404e-06,1.2941103660091385e-05,2.056925932675115e-06,4.382644990251296e-05,3.980197047396006e-06,4.758132788188783e-06,1.8948961310920585e-05,6.240850273289102e-06,9.340352217329445e-06
40.685624600038864,-2.1772778601637928,15.817539732517297,3.704650575972711e-06,1.105055616752334e-05,6.719592486383147e-05,1.953188805587645e-06,2.8228107890162592e-05,1.3843215293237456e-06,4.628868440910982e-05,1.9218456960636763e-06,9.814846798246249e-06,2.227724115262335e-06,9.09137739211786e-06,2.3931750649335623e-05,5.2341412277922944e-06,8.373810968565851e-06
40.81820277485531,-2.487279891298466,21.873118797983047,6.2756093790581504e-06,2.4708260951564576e-06,7.430503278427876e-05,2.707361268987816e-06,1.9586375988065957e-05,1.3903909345211044e-06,7.100224183871982e-05,2.4088089330076125e-06,3.82342098887327e-06,1.947462298743505e-06,2.40008916744601e-05,1.685148465999522e-05,1.4752519844555705e-05,8.229425087550462e-06
40.88216614990961,-0.8366541320791909,11.10698746761812,2.3430939225348084e-05,2.9316923399367037e-06,7.089589222782827e-05,2.86829627786969e-06,1.75970768792657e-05,1.453514939932288e-06,7.754876058175136e-05,2.250821254477973e-06,5.107629528108142e-06,1.796705176499813e-06,2.758834776174028e-05,1.716843289583235e-05,2.3443508045806385e-05,5.95407782835796e-06
40.97174830012955,2.7813087797233544,1.5644952799642313,4.5160405386553856e-05,4.026329891568209e-06,6.4084075431529e-05,2.909616051977387e-06,1.8779452915933915e-05,4.190558156803517e-06,6.832392253201008e-05,2.640952884625057e-06,7.588414285894899e-06,2.294052266456949e-06,4.401895395174495e-05,1.3606256172631991e-05,3.912060411518861e-05,5.93208929520249e-06
41.09122629999183,5.54655091904562,-5.831485369584898,3.5617815304646e-05,1.9122497993609174e-06,2.1870948215804377e-05,1.4776675383940745e-05,2.233013650707463e-06,2.1106854425048987e-05,1.1842159930560416e-05,1.2049772309800628e-05,6.5498684563204195e-06,1.5539080740311553e-05,4.973388679065574e-05,5.95507107607018e-06,3.548412487773505e-05,2.9850026476928596e-06
41.1687170000514,20.580645603912252,-6.795769065098847,2.780670604904943e-05,3.7054521726365013e-06,1.8174953548607966e-06,4.801899809869843e-05,1.3774502289468069e-06,2.4224463881766066e-05,1.836440878400533e-06,6.978209191003343e-05,3.6793258152006306e-06,9.193225981850352e-06,2.6403751471342907e-05,8.158189292293637e-06,1.8770104928108586e-05,8.16029303328728e-06
41.3012776998803,29.578224989224978,-7.345178311629638,5.600194475884675e-06,6.707323596454564e-06,2.7914630203109166e-06,0.0001013600156757,1.930361466950945e-06,4.1520417349649464e-05,2.0922165449446407e-06,8.800053187555442e-05,5.194167559738069e-06,3.382867903851226e-06,8.284460259289134e-06,1.1440992183064561e-05,3.935191013484076e-06,1.5124860761720008e-05
41.39447419368662,20.88318501091854,-7.916227009211358,5.308677089931456e-06,5.962936535475879e-06,5.507317342687102e-06,0.0001037427496499,3.14124908949967e-06,3.9781554652800343e-05,2.299217105399578e-06,0.00011797137943744999,2.831751669980143e-06,6.394762450194325e-06,4.484985868981992e-06,3.165464591353347e-05,4.767791038021683e-06,3.025676824520737e-05
41.49197927501518,12.043507395814395,-4.343365819266737,4.058128419533853e-06,7.619462619998358e-06,7.675712037345892e-06,0.00010977259295505,9.946716397855344e-06,2.267741810235572e-05,2.052724228677634e-06,6.191383615764188e-05,5.483428445913989e-06,8.411239118024441e-06,6.4697150333510425e-06,4.909959589880987e-05,4.027252322173204e-06,3.7496413948909704e-05
41.613947200006805,2.0304282111518095,-2.3714908647735276,1.7280295955237892e-06,1.5790843045364336e-05,4.1255850318432064e-06,2.0697514950331164e-06,3.0974917480923705e-05,1.2716079855100228e-06,3.370992850351724e-06,1.962513502439064e-06,3.4781517137548154e-05,2.4205350822067675e-06,5.569660266117989e-06,1.9648540300724956e-05,1.1781997921090266e-05,9.316594000121683e-06
41.68686280003749,-0.811315325775257,12.916512824256264,3.87544021714406e-06,1.2669363410809062e-05,4.2280763113187436e-05,2.272093635850368e-06,3.467904829972246e-05,1.2793839454593285e-06,3.0761163278213885e-05,2.6498036264310566e-06,2.948009443436334e-05,2.2588186370678423e-06,1.3049343378613805e-05,1.6824793237987692e-05,7.828244100279271e-06,6.629174404147891e-06
41.80760415003169,-2.636407749171076,17.192338668254386,4.443880674219432e-06,3.4170114191601537e-06,8.741601853696739e-05,2.3616319953505608e-06,2.138885697047873e-05,1.2434767005917512e-06,7.790005120179257e-05,2.1795800054659355e-06,4.944218922551062e-06,2.304810587734159e-06,2.70805147209098e-05,1.61893863547568e-05,1.863186377279065e-05,7.215942028334814e-06
41.90498990006745,0.0628346482601778,19.1979495466467,1.1844795916523546e-05,2.345453513732559e-06,6.333782586096668e-05,2.364247044078084e-06,1.5573832392325398e-05,1.3116749490857184e-06,8.13659249673308e-05,1.8913526563551084e-06,4.844455306696201e-06,1.5740221612461265e-06,2.690202210595363e-05,1.905517561768778e-05,2.120024097795054e-05,8.923044661567212e-06
41.97649699996691,3.247808336353607,3.3931350387397208,2.1254993694620048e-05,2.4108683529199934e-06,6.721940368440739e-05,2.922152426613824e-06,9.782706052693898e-06,4.403668538069498e-06,6.386071048098587e-05,3.112929829362076e-06,6.725272822556492e-06,2.164733895377243e-06,4.3430657747548914e-05,1.3526476032878068e-05,3.52301639743655e-05,5.186583513209313e-06
42.1147217998514,5.997344652877601,-6.834263569479061,3.3102838119239154e-05,1.8546680445213055e-06,2.3290483648537627e-05,4.32021431162328e-06,2.629038960769366e-06,1.887456930789451e-05,5.921559211252524e-06,3.688036901219352e-06,4.828737205962718e-06,1.9160148082611555e-05,3.392178659860831e-05,5.617662736186602e-06,3.03339383243846e-05,3.548984762760884e-06
42.184935199911706,19.00295621442704,-7.15514420107746,2.1125692057980657e-05,3.4672516849049098e-06,1.4259104666964506e-06,2.945163249175438e-05,1.4190975020373602e-06,1.9578739095618134e-05,1.7129360517249983e-06,4.5090576490141225e-05,3.329325558141323e-06,9.069812349802976e-06,2.4654988794500297e-05,3.839717808572652e-06,1.4117546779385654e-05,3.1130481459276867e-06
42.309253800078295,30.778946469661445,-7.90012412476329,6.339180989927884e-06,3.96946976044938e-06,2.039950041889293e-06,6.447207373554205e-05,1.9890798333372887e-06,3.073288370028661e-05,2.5651513207699674e-06,0.0001051214475709,6.265857939243192e-06,5.711707965054008e-06,7.509424686097705e-06,1.178799787889187e-05,5.796849852266039e-06,9.770409209210018e-06
42.40391434368212,26.60105939917883,-8.077908170295807,5.26394887661845e-06,6.671992533887813e-06,4.6137531047577225e-06,7.352083218758562e-05,2.8634243750710512e-06,3.9661897342463246e-05,2.4045673550076386e-06,9.854454322061448e-05,4.997528361248817e-05,4.988458274609567e-06,1.0306527686686802e-05,2.021425537063201e-05,7.887056629613631e-06,2.4250541584922494e-05
42.48051160015166,15.570342440582664,-5.729831920604877,6.428247397458619e-06,1.093375222556805e-05,6.857547316204984e-06,6.879535510069767e-05,6.003891432130134e-06,2.932686947130774e-05,2.3668626506587964e-06,7.596680979365163e-05,5.3926056781888516e-05,6.034781556018453e-06,6.4559088945757365e-06,4.3120456514057866e-05,6.438026267911013e-06,3.2090763582510114e-05
42.584364700247534,5.571038816837529,-2.519860403855556,3.768245956599265e-06,8.816829607194165e-06,7.348504516373208e-06,3.1159459746504976e-05,1.6821228909024172e-05,5.7712674871996495e-06,3.0833122845222783e-06,2.5389521021699645e-05,6.162063166761014e-05,3.330907441784004e-06,4.47827098006953e-06,3.955429895381903e-05,4.984870820032429e-06,2.4038264424442943e-05
42.67347150004935,1.1494025553365188,0.9906134068474346,2.0215974593866265e-06,1.2406814224518185e-05,3.875474758296858e-06,2.296115485080192e-06,3.741667975014117e-05,1.3733019774200762e-06,5.16807476804822e-06,2.055053277884639e-06,5.320327346690261e-05,2.6396089930558817e-06,4.837523666533033e-06,1.635846641785358e-05,5.308540603571974e-06,7.79774936177295e-06
42.81297749991063,-2.0341169286718364,17.746953819610294,3.987466861508929e-06,7.43651674629437e-06,8.064963119734501e-05,1.9779876193354022e-06,3.841496574285055e-05,1.111765232255335e-06,7.056437146925501e-05,1.5892610722859208e-06,5.406076311724887e-06,1.871850528592024e-06,1.9423730805420567e-05,1.1762004363371332e-05,1.0670531058222651e-05,8.977859004540881e-06
42.86727997509297,-1.617748619854141,20.90458037926428,3.900146677223436e-06,5.284076630675466e-06,8.583276531778262e-05,2.146468138102878e-06,3.962092364198376e-05,1.344453960182281e-06,7.516322231404276e-05,1.7871798398912532e-06,3.885434995664845e-06,1.9460298968761693e-06,2.5178310022770624e-05,2.4399719277648352e-05,1.0892515974901706e-05,8.384405804013627e-06
42.993227712460794,0.9265967921682687,10.394171385154943,2.5357186953674426e-05,3.043904537740695e-06,7.579886870870018e-05,2.9819749891113258e-06,1.7774487867568118e-05,1.7074694317817152e-06,8.596806880014111e-05,2.2774718257620255e-06,6.042880713757881e-06,1.929709943896611e-06,4.942695261373119e-05,1.127698056881494e-05,2.511437182820748e-05,3.6782056192892736e-06
43.121938631287776,2.4961381859713665,-1.6153795889423583,2.92491386163521e-05,2.5735369947830656e-06,5.0815942367268984e-05,3.5520628023308915e-06,7.75812069083256e-06,1.7530554890236397e-05,2.826536172373258e-05,2.4508712573446593e-06,5.887590241638893e-06,1.581180397088136e-05,6.392983554707966e-05,5.891470757833188e-06,3.737021325099083e-05,4.257685614347394e-06
43.17990670003928,10.249108175910754,-5.908088579703133,2.7858165437563703e-05,2.2122754493184964e-06,2.660337570971216e-06,9.102184477162735e-06,1.496559370037757e-06,3.1233152093027236e-05,1.8914577412691434e-06,1.0236031890728141e-05,4.576456962292595e-06,1.907261943292021e-05,3.337151461448539e-05,5.322664535672955e-06,2.1081274772489277e-05,4.097737696140624e-06
43.319254599977285,27.174093447732496,-6.0172209638569285,8.282794094874576e-06,5.480539326427979e-06,2.2392701008353785e-06,7.649762365648761e-05,1.761166183720613e-06,3.1427160775624783e-05,2.137164675151616e-06,6.988787207445256e-05,2.9017135850406264e-06,7.300313913496718e-06,7.396024053457964e-06,1.0377275377721232e-05,5.604190257749934e-06,1.0379420399567388e-05
43.36884889996145,32.01801648685509,-7.201068550673519,7.724103958239565e-06,7.137595431746163e-06,2.292409437148014e-06,7.037452481103611e-05,1.897611643366976e-06,2.580695368132077e-05,2.415784323873347e-06,8.161764322731812e-05,4.870596110741462e-06,5.929112393774833e-06,7.613423472010982e-06,1.1233917428183838e-05,4.360932940832343e-06,1.2062540941426412e-05
43.49315491237212,13.524738872851778,-6.428668759410606,1.1845651454043853e-05,7.275229969538045e-06,4.951414318199837e-06,6.858783608028285e-05,3.828725135915238e-06,3.104695514848552e-05,2.9065767921957903e-06,0.0001044498697039,2.896249798127416e-06,7.768485846248467e-06,9.100487169093063e-06,2.735247299591263e-05,6.032768976864239e-06,2.5252849023714555e-05
43.59517950017471,8.679819655374946,-4.168880201209459,8.302730264658124e-06,9.604287574156049e-06,6.163587796797904e-06,6.344239520380374e-05,1.4430291010406998e-05,1.310128951936874e-05,2.67233105405845e-06,5.16873329423199e-05,1.6106886185744732e-05,8.398454644471332e-06,7.789955943398834e-06,6.090587468803186e-05,5.066703741751668e-06,2.835490244568923e-05
43.66140557487961,2.996329748572386,-2.6129142264840013,1.7301345075778834e-06,1.2182906699604052e-05,3.896370952528495e-06,1.7713531318047476e-05,2.3272548430903823e-05,5.6236119027990375e-06,2.807977953768012e-06,1.0118242799460335e-05,5.107561885835396e-05,5.109207110041099e-06,8.690000275434033e-06,3.343638017748118e-05,6.858504487103991e-06,1.9865821777019453e-05
43.80552029993851,0.5101507573622839,16.75189449284911,2.759915692840176e-06,1.4556146422937092e-05,4.681632954277573e-05,2.178120540014897e-06,2.795865765273945e-05,1.49061271181936e-06,5.0550600657761785e-05,2.5721370501516607e-06,2.8384867495061684e-05,1.9668524728298616e-06,9.905063912577758e-06,2.282366557015808e-05,7.16173516415756e-06,6.664105805820391e-06
43.88093919993844,-1.697410535953658,22.956930314651576,4.8681390025142e-06,1.096085480171509e-05,0.0001170799993661,2.729941644167423e-06,3.3425126168082634e-05,1.8525631401465775e-06,8.833613851889553e-05,2.435392120270888e-06,3.3132139373440723e-06,2.1704339009058845e-06,1.517921593096646e-05,2.217745180788481e-05,8.413589333939062e-06,7.694154873704896e-06
43.98440883902367,-0.8313042192491551,17.04582769630777,8.003327044257741e-06,7.311596232338627e-06,9.932125359815027e-05,2.5446662308360606e-06,1.9530808823128784e-05,1.8617406804222032e-06,8.377906453480386e-05,2.154439793232266e-06,4.6277148402456914e-06,1.8748906903864526e-06,3.417040693005467e-05,2.1440566809052166e-05,2.185803894760492e-05,8.189735753868948e-06
44.09885090007447,2.8233712354964737,2.3493983563789227,2.6397441692891997e-05,2.8726708677691092e-06,6.563166623359368e-05,3.1602229623108292e-06,1.3376367544092477e-05,3.7733847655590374e-06,5.974493211452282e-05,2.42807180464553e-06,6.483270026934616e-06,1.6467375286366922e-06,3.7107423166158096e-05,7.471935175498009e-06,4.303509274217323e-05,4.344007790056162e-06
44.18880020012148,6.348516092239047,-4.892565849409312,2.790281660025285e-05,2.1813515736161364e-06,1.5406851352136884e-05,4.85678836304274e-06,2.710484286245512e-06,1.5159332875412446e-05,7.679702988546283e-06,4.575171366317371e-06,5.47073694046177e-06,1.7438043555869003e-05,3.293420446918263e-05,4.855651067288186e-06,1.9590785598322052e-05,2.7737161396017894e-06
44.31074643135071,22.370326917441297,-5.478746521682317,1.553178554211915e-05,3.873576178657933e-06,2.324319690400874e-06,4.844932929528746e-05,1.4888144032111379e-06,3.475781537889989e-05,2.1329187959729436e-06,6.12882330314535e-05,2.9667060382192553e-06,1.5110082561968278e-05,8.872494898702035e-06,1.1201901025570068e-05,7.3112434824512995e-06,4.9262413608796976e-06
44.40109260007739,28.75489523242836,-7.35726255844186,8.957181683221303e-06,6.014083970428311e-06,3.7861308247145808e-06,0.00011687846544615,2.0862125147840623e-06,3.29653245074093e-05,3.2387336032994033e-06,9.23930259220965e-05,5.2848516439742675e-06,7.77099130287254e-06,8.421475420605522e-06,1.4321031385734859e-05,1.2719381656652389e-05,1.107859258373568e-05
44.48884070001077,27.456355939281252,-8.725179129246385,7.771558420686584e-06,6.6339280428798495e-06,7.3015545185688005e-06,8.957189512280429e-05,4.8353200740639365e-06,2.286394603315578e-05,2.9629596493394378e-06,0.0001158916727963,7.053818193660761e-06,6.222419769292982e-06,6.7856156006164085e-06,2.412574810280574e-05,5.381460452470462e-06,2.185460230791517e-05
44.59651880001184,15.354517948340842,-4.553743886103855,7.1524584333979335e-06,9.14316902811978e-06,8.757705188727034e-06,8.414740278517707e-05,1.0815276484917637e-05,1.7804942670770955e-05,2.6543370536517277e-06,7.406257740803729e-05,1.2226386790854368e-05,7.280527543652473e-06,6.714414950288837e-06,4.552215714216103e-05,6.02690492619954e-06,4.153452298211984e-05
44.66318467503879,4.942455324159722,-2.279807857147453,4.476632220417736e-06,1.077643134095306e-05,6.0688265509743295e-06,4.784297037770855e-05,2.834727087939564e-05,7.406362000781247e-06,3.309221600647758e-06,3.282796046141929e-05,4.150430061458e-05,8.242791788887067e-06,9.264007379446583e-06,5.727383853942755e-05,4.784240551779986e-06,2.783309180318138e-05
44.81362010014709,0.6440655761097362,13.448417129489282,4.070849694949406e-06,1.4051346055231811e-05,6.422769508183034e-05,2.3660689142691153e-06,3.8024910601983866e-05,1.4117612706351609e-06,5.5101220596456344e-05,2.0214376539870843e-06,3.086864659716301e-05,2.130263760497086e-06,1.0759706443243576e-05,2.133077633327465e-05,5.360731602688642e-06,7.572634417709172e-06
44.89230510010384,-0.594963987286834,22.890187705936885,4.616432419997995e-06,1.7988126790153817e-05,0.0001231293730079,2.274391574808868e-06,2.6045780213398857e-05,1.6824775644842332e-06,8.209032854805962e-05,2.1370238037841137e-06,3.870378509702906e-06,1.930104555546055e-06,2.968942748923541e-05,1.952369779031319e-05,8.65406887355873e-06,7.909584431458457e-06
44.99001569394022,0.14828466707002105,19.37874039678759,7.438965564510317e-06,7.931835239931408e-06,9.186309841664433e-05,3.232392190096587e-06,1.7099347809870782e-05,2.1468429561297713e-06,7.193932352991471e-05,2.202262650252154e-06,5.423314925202922e-06,2.4382655967028584e-06,3.697671148091394e-05,2.40731486187879e-05,1.5404326735772275e-05,9.48246981891424e-06
45.09270200005267,1.7951413323967316,1.8181314214620592,1.899338940228998e-05,3.5901114011718824e-06,6.086363811966243e-05,4.339676372331411e-06,1.1297325572688076e-05,3.6614193740185326e-06,6.137274716753774e-05,2.7944014456093245e-06,7.132548545778321e-06,2.849432429529457e-06,4.846325045264603e-05,4.669143350550533e-06,4.726871910207863e-05,3.4756543405351258e-06
45.1834282000782,5.098210298934752,-5.415045003712658,2.7505407603443848e-05,3.0249109546069086e-06,2.3207177441677914e-05,3.347270786785859e-06,4.904617634511344e-06,1.183420475841347e-05,2.439111614675977e-05,2.3814176712388133e-06,6.963982354139082e-06,8.654897926016582e-06,5.4807158389527865e-05,4.405001220203131e-06,3.0259399710546677e-05,3.63196335920239e-06
45.31217270006891,18.712004998390192,-7.0021872946888415,5.631483201715877e-06,5.486463270609371e-06,2.1856152341141265e-06,5.353394289717671e-05,1.6975729844097432e-06,3.2480863656681654e-05,2.175035046697588e-06,5.8858556127008917e-05,2.2451486853957323e-06,8.217309309153563e-06,7.764933520776957e-06,1.193050722691752e-05,7.025657730869506e-06,9.112196390037579e-06
45.358614710741676,31.302641555677432,-7.282631257960411,4.853654649946531e-06,7.695351298736649e-06,2.2923676486049427e-06,7.407533625628915e-05,1.8353817126045168e-06,3.7006003615039506e-05,2.343707109756135e-06,7.787308849307317e-05,2.4423686615210873e-06,6.821132296276598e-06,7.879090068289829e-06,1.2656896492485521e-05,5.315755014580474e-06,9.285637418107898e-06
45.47456360643264,17.85147679100652,-7.84577654018184,6.293834950892616e-06,8.052843615128868e-06,4.872114029103e-06,8.576661456458494e-05,2.6898281440989378e-06,2.4681649603353445e-05,2.908467519446569e-06,0.00011204769663124999,4.3165670084468125e-06,7.76067288845572e-06,5.39717878198021e-06,2.5255602608204372e-05,4.1920202897394615e-06,2.0153324857538658e-05
45.5906079999404,13.96018163521856,-3.250821068298646,3.575557189169693e-06,7.364508537005701e-06,7.5048469387161565e-06,8.159027547009946e-05,1.239135592260328e-05,1.272930971695276e-05,2.4997725938613853e-06,6.13276922859831e-05,6.802259864509164e-06,1.3357808178646345e-05,6.9689134766127365e-06,7.296781486050295e-05,4.926798690033228e-06,5.600834790227476e-05
45.67885739996564,3.6025539461168403,-2.1697946218465285,1.9973082345827887e-06,7.57871278556891e-06,5.379733378747626e-06,1.954484770078677e-05,3.085222606425346e-05,1.8844981132191776e-06,3.041222477117653e-06,1.5399800771484487e-05,3.964342501435848e-05,1.0132838596146257e-05,7.944363468876191e-06,8.030350639794275e-05,6.4852569185445644e-06,2.8339172987233717e-05
45.801765699870884,-1.5224837942780285,12.285237544679031,2.6761900475531903e-06,1.701552412819166e-05,4.781539095069959e-05,2.2369117839644154e-06,4.468319287252699e-05,1.7041073301630844e-06,3.9409164417958864e-05,2.5119301849514868e-06,4.659056937514073e-05,2.860169790567578e-06,1.140699615681313e-05,2.088710756102001e-05,8.37394681497212e-06,1.6264889566149176e-05
45.89338910009246,-1.7790193266971706,18.34076357390584,6.361523360848592e-06,9.275433154537488e-06,9.952395092581116e-05,2.5674358621503247e-06,3.129727119332599e-05,1.4898845749588822e-06,7.504709970136946e-05,2.5016896855339025e-06,6.644013131973188e-06,4.214282275209715e-06,3.008574144747577e-05,3.194819076151232e-05,1.3621458579874404e-05,1.812532944715641e-05
45.99685244995635,-0.7014632688522799,14.730373748183805,7.885765891888591e-06,2.507874572936734e-06,9.429432869873444e-05,2.3304222198222348e-06,1.639099211881412e-05,1.4060015471998536e-06,7.872973213131267e-05,2.107400688345007e-06,3.6360934553487576e-06,1.9891879982039336e-06,3.3144851788890154e-05,6.527741962841025e-06,1.433807245596031e-05,6.612452387740923e-06
46.10262898763176,2.215528421860844,0.7890173228903654,2.177901736891257e-05,2.683826430850859e-06,4.7350718711447024e-05,2.6445025912735637e-06,8.28364247326078e-06,2.7441965401484824e-06,4.4221892508087335e-05,2.186809669377001e-06,5.478541278629135e-06,1.8014344386354278e-06,4.627542097994603e-05,9.179346859373216e-06,3.5127563568565714e-05,6.596024610324639e-06
46.189334600116126,7.935655631699195,-7.546147080655922,2.2921665047240476e-05,2.373356390637152e-06,6.581311025517328e-06,4.494512403386328e-06,5.260245635368087e-06,2.1182013083507044e-05,3.5230200043600133e-06,3.402404067800228e-06,4.438520110568454e-06,1.4272477411208194e-05,3.4487647486438086e-05,1.8285808225938567e-05,2.268336780163429e-05,9.595571363041171e-06
46.32899039995391,25.84555975896158,-8.003982751118972,9.770584534460136e-06,6.48443307753067e-06,1.4665144871697473e-06,7.65194588160796e-05,1.3071845818942712e-06,2.624545233366352e-05,1.780179377464269e-06,7.901065305273677e-05,2.4026232653575712e-06,7.657050959913016e-06,1.6992707360702303e-05,1.1675761386585494e-05,8.324300119155656e-06,7.671112064819431e-06
46.40404739999212,33.46061548327813,-7.806146559186388,3.839319648328682e-06,7.979009749648094e-06,3.6593116027068746e-06,0.0001234613079299,1.7835160289169785e-06,2.4984694567863493e-05,1.641685196908334e-06,9.983575756559635e-05,2.409649579009779e-06,4.9625030267565665e-06,9.158024330766361e-06,9.269673542855613e-06,6.682278063167403e-06,1.139225046055103e-05
46.493423300096765,27.053477797128515,-7.288948187188192,5.40029484653436e-06,8.868126994787005e-06,5.7359911976955216e-06,8.093054314614508e-05,3.349746474028774e-06,2.393568954167824e-05,1.9793417828434966e-06,0.00011726344483645,2.8932716111094607e-06,7.668271675980359e-06,8.957720949771947e-06,2.693223702626118e-05,8.846195787648961e-06,2.698086735190885e-05
46.582935599959455,33.264810739603604,-4.599879514151571,4.3284994780925385e-06,1.0356361537613346e-05,5.366878656657761e-06,6.465465880506344e-05,1.3695597553342282e-05,1.5521724601464906e-05,2.49151653108976e-06,6.993811165191454e-05,2.706999441222624e-06,9.754078071025071e-06,6.4993850791115565e-06,4.961923312596603e-05,6.401519183992156e-06,3.789401963640213e-05
46.68446320004296,2.238808441284991,-2.397189774117572,2.2075079868800206e-06,1.4425308381174803e-05,3.239038480975442e-06,9.115640954917596e-06,2.03258160265476e-05,2.855377319722528e-06,3.7790752145748415e-06,3.816856968587094e-06,4.7564172021213016e-05,6.353822344069656e-06,6.9450848126320045e-06,4.32801533486278e-05,9.41989352410993e-06,2.573101846969269e-05
46.79608756257221,-2.3694343354413268,17.27338564610164,4.695240165724869e-06,1.6363199701123137e-05,7.432711232054553e-05,2.040102556778199e-06,2.2155553094231975e-05,1.4055067691082464e-06,5.423066304981662e-05,1.883927351967031e-06,3.0454320454887693e-05,2.199949358224364e-06,8.593397633166039e-06,1.9078689327010758e-05,5.869078156887621e-06,7.2390479109701475e-06
46.876809437642805,-2.127078384554478,24.60984947239526,6.144173425828307e-06,8.918713393205842e-06,0.0001334462282789,1.8060568349378682e-06,2.6688573611155756e-05,1.4879028211512963e-06,7.987777006799328e-05,2.0656944743333664e-06,3.0653679636790738e-06,3.015747080523056e-06,2.136810054351704e-05,2.5178568365055726e-05,1.1496019000631214e-05,1.5000913524990207e-05
47.00756070006173,1.4953454134970623,13.14434532534227,1.3247048363575559e-05,3.811766789396113e-06,7.184267826373812e-05,4.10893722105732e-06,1.9535526042199643e-05,2.0616213321008293e-06,7.889959536005182e-05,2.6067667575208683e-06,8.44529175463449e-06,1.7478134481125382e-06,4.36879480501552e-05,1.0374006891745976e-05,2.7341166438402934e-05,5.561333257673202e-06
47.09953021258116,3.2261487791972865,-3.0512009471948667,3.1918309546657026e-05,3.264751219242614e-06,4.84175296278686e-05,3.876489424934211e-06,1.1757588565016522e-05,7.163548995581797e-06,4.542962343223775e-05,3.2075456119814145e-06,7.72167003864987e-06,5.332650051267666e-06,4.6259522923663185e-05,1.3028620115915243e-05,3.418606116726132e-05,6.54350912190271e-06
47.18305529386271,14.042969965806469,-7.187329186753669,3.1283507088091385e-05,2.1793648551941437e-06,2.3711600598101907e-06,3.737538697604992e-06,2.5067084732306117e-06,2.1645639874605603e-05,2.296406341680026e-06,6.140119110301472e-06,3.6183311835587888e-06,1.9479681688253457e-05,2.7941735383265396e-05,7.028616700504484e-06,1.7410095036898498e-05,3.537005378042041e-06
47.297350812354125,30.350864241659824,-6.815590157368758,1.012921632860912e-05,7.187299129420291e-06,1.8797428182386607e-06,8.608662584786096e-05,2.9786816636584644e-06,2.364057708001969e-05,2.466958889829637e-06,7.240766401949507e-05,2.3432852956026214e-06,5.3510614182447255e-06,1.1905700031712e-05,9.655368456879307e-06,7.077356703054392e-06,6.942014402689618e-06
47.37891787511762,32.782054711795666,-6.08081772678924,6.017887830112735e-06,1.0547701917889911e-05,2.756200417207277e-06,0.0001100645954706,2.6830063551025256e-06,2.2846455286442334e-05,1.82039746016387e-06,0.0001138072009012,2.377485412012887e-06,7.691385347927924e-06,7.921926002770491e-06,1.5165285370098562e-05,6.419325721809769e-06,1.8269870473402744e-05
47.513365100021474,13.568030280661652,-6.482146752983104,9.125351144089813e-06,7.588331003479461e-06,9.723925164366032e-06,8.139875753321367e-05,3.7522794524781493e-06,1.6035917463131046e-05,2.3481548806882156e-06,0.0001063815016297,5.191455457767211e-06,7.1778798926163425e-06,6.512770059305338e-06,5.658282515832884e-05,7.3682659958571675e-06,4.133729253280615e-05
47.59232170006726,4.859210522348828,-3.8197269742736975,4.668766396334471e-06,8.364982091022922e-06,1.0091878915373231e-05,4.392733490671441e-05,1.6205003445730214e-05,1.3804425262165282e-05,2.4504832874703635e-06,5.344265646628967e-05,2.052088640458464e-05,8.183266341318169e-06,5.626681096000445e-06,6.462576645668882e-05,4.669263710829836e-06,3.545006408506491e-05
47.69727454998065,-0.8298138536346347,1.8631425183384345,1.5362446153624369e-06,1.472535631680948e-05,4.16077356579497e-06,2.814745158244817e-06,3.067051912047832e-05,1.5582254719462831e-06,5.83688451409501e-06,2.4174919912143023e-06,3.944267230280313e-05,3.3431720645954056e-06,3.806938471565821e-06,3.451776734461669e-05,7.126085131798662e-06,1.2752181164943006e-05
47.79482265014667,-4.032335644212597,13.76016392758224,3.666053011000241e-06,1.048949522881728e-05,7.282506858329743e-05,2.2279474089769355e-06,2.688830039566769e-05,1.500228770974242e-06,4.466046821251953e-05,2.1316413254941018e-06,1.3969456813441466e-05,2.339056964934193e-06,1.067534393997645e-05,1.7756544733345895e-05,5.301856271440509e-06,1.241216918057978e-05
47.87947882490698,-2.3713783665869705,22.311364908838,3.9297171074769526e-06,2.1369220211293296e-06,9.522896971790904e-05,2.037487710050326e-06,2.4948644139309995e-05,1.4498510727400225e-06,8.228402205459494e-05,2.036573377459443e-06,2.636509596127449e-06,2.2512250599043416e-06,2.8803170872347828e-05,2.588908263354333e-05,1.1653061605736497e-05,1.231386791439402e-05
48.015587600064464,0.7743637662636653,7.289484228559465,1.538309933334652e-05,2.3965302514244795e-06,9.318093942093812e-05,3.2840062554808277e-06,1.7054988603051086e-05,2.4687648485389933e-06,7.317499631143769e-05,2.394408051531975e-06,1.0083760931491487e-05,2.0378541270183626e-06,5.957189164948905e-05,4.004346822602242e-06,4.261667966534446e-05,2.303662293349197e-06
48.112832900253125,3.2188893690665434,-3.633398259393834,1.6669832356805035e-05,2.0332749998511886e-06,3.050390419411572e-05,2.9578419785449343e-06,4.449261540580508e-06,1.302056775802043e-05,3.026136141538806e-05,2.3239850406971425e-06,6.207632341507985e-06,1.6594345015157146e-06,5.50381666582197e-05,3.381153528084796e-06,2.61384380751816e-05,2.416643557002844e-06
48.1980893999571,9.379660343410471,-8.62257106984216,6.794525251844577e-06,2.8488041321347383e-06,2.8551950012592304e-06,2.2678449092243155e-05,1.2725688902487892e-06,2.3957128105463467e-05,1.7487050612634577e-06,1.4165216173408957e-05,2.8032545078360666e-06,2.7901720792589905e-06,1.7802919663285288e-05,5.207313250044743e-06,1.2818172430430372e-05,2.6828490905270747e-06
48.28860212501604,25.5662634447846,-7.2955537143109614,4.071504607354811e-06,5.036133950215119e-06,2.1624016698353645e-06,5.65348660451304e-05,1.3278918549184365e-06,2.943462172662513e-05,1.7293049478516266e-06,7.314925084242277e-05,3.098986815612226e-06,5.939378053877122e-06,2.3129258735638154e-05,1.076434022715474e-05,1.744066665559293e-05,8.273433998900362e-06
48.36913855315652,29.68433255033722,-8.271382289738721,5.106549180687956e-06,7.108728262076875e-06,4.384842345876911e-06,8.027901874591928e-05,2.1232658635064105e-06,3.3241750571875095e-05,2.3084469131300742e-06,8.567977271887809e-05,2.278250088519767e-06,5.090657596039483e-06,8.530256432692326e-06,9.559342385050065e-06,5.918738471968565e-06,1.185132246769827e-05
48.51499545003753,14.180835309322743,-5.802395259589956,3.899932451343377e-06,9.819890608958538e-06,5.96689558382681e-06,7.235436594111455e-05,1.0110799618056862e-05,1.3175170271123508e-05,3.140271069716044e-06,6.189641311347579e-05,2.8179846239091334e-06,7.77277666432967e-06,5.024344110393102e-06,5.05087590010096e-05,3.7535517773486585e-06,4.442365183841754e-05
48.59380847506691,4.942502581940864,-3.405242008221577,2.4828964801449417e-06,1.3696853621279194e-05,4.384219043587749e-06,3.624231957164719e-05,1.7451063481903243e-05,6.159446800079031e-06,2.505796006818684e-06,3.317618400260019e-05,2.6499043570033413e-05,5.013087228040579e-06,8.203397200667767e-06,3.915970844800676e-05,6.334762776407897e-06,3.1503769157745626e-05
48.702564700040966,-0.26620293595667177,3.0677860744426253,1.899909612624311e-06,1.2484354044152945e-05,8.373536416438584e-06,2.5136473940398e-06,2.915489944604389e-05,1.4538632540525585e-06,1.4915163657232794e-05,1.629667177572231e-06,4.028789284575798e-05,1.756636306408626e-06,6.168369824323474e-06,1.0306421060357714e-05,6.1743718885060296e-06,4.600162863290251e-06
48.7770566000836,-2.826943761954615,15.779909412901834,4.002451783660296e-06,1.1978489356220342e-05,6.089570984683452e-05,2.030011677131013e-06,1.5676143355944984e-05,1.4111348278427651e-06,4.740992140431376e-05,2.036996282170225e-06,1.4909465079115613e-05,2.3765129236297093e-06,1.0761346455288145e-05,1.342695328469562e-05,4.614270332893518e-06,5.6426598141575e-06
48.89203460002318,-1.8749896299367084,20.7278253109012,5.648898265594654e-06,1.8884392777936606e-06,0.0001134539255472,2.0974249181794884e-06,2.383431848909049e-05,1.5128815221105726e-06,7.21859016182819e-05,1.7159455644198878e-06,4.069338012278253e-06,1.910076534660963e-06,3.547555203502876e-05,1.6060385261746508e-05,1.6591327167710442e-05,6.64455245367913e-06
48.99149120016955,2.34768244369332,5.395470983294421,1.3156444583036747e-05,2.1607935326228237e-06,8.08479982501721e-05,2.5970358360142978e-06,1.7622781790346865e-05,2.036606914519485e-06,6.674851904401575e-05,2.1369086873230987e-06,4.610941965641742e-06,1.79805283212988e-06,5.146885593328907e-05,1.1581343681269094e-05,2.535358255980814e-05,5.42385320656764e-06
49.11037820007186,4.312671804616211,-5.48986896831864,2.667799685090151e-05,2.1475748156999e-06,3.577640294041138e-05,2.743349988654058e-06,6.56776138822415e-06,1.1715301526238348e-05,2.8809081875978787e-05,3.1534710797027068e-06,3.892008779234268e-06,1.7044390612189615e-05,3.065361327316474e-05,5.500474094925794e-06,2.9207188455082635e-05,3.0808979493494257e-06
49.19441803137306,19.93753162255826,-7.169465643998505,8.054105050844401e-06,2.117467014228697e-06,1.4733266017483748e-06,2.6356138954051776e-05,1.462954140264255e-06,2.102009213290051e-05,1.5769418394834878e-06,2.5799578959630175e-05,1.999819326993204e-06,2.317057294785365e-05,1.2097950946003656e-05,4.686261067212212e-06,7.044533327456898e-06,2.9587742548359274e-06
49.28466530004516,25.16639671770575,-7.207460356550668,4.451604401198223e-06,6.320888245094516e-06,2.771328723575555e-06,7.965903516369275e-05,1.926806796526992e-06,2.992863843236127e-05,2.311628224818245e-06,9.457510441283689e-05,2.3569402126688943e-06,5.680571771374772e-06,1.9948864492868197e-05,9.44933220478669e-06,1.4800036326072427e-05,6.004622449023747e-06
49.38065416866448,27.711246792535537,-9.4178950358945,5.504969618924955e-06,8.380935595405834e-06,3.514088328278473e-06,8.164900810627869e-05,2.4107108530131747e-06,2.1400147349400658e-05,2.3302236722253934e-06,8.936351482635629e-05,2.5067076606110507e-06,4.598582129485539e-06,4.486257884398964e-06,1.4187944861969984e-05,2.954222194317541e-06,1.7365235054432777e-05
49.495535299996845,13.644749036327891,-6.521212984465785,6.337657579529515e-06,7.2493169462754835e-06,5.527279752906609e-06,5.7145041497831344e-05,8.80769773824653e-06,1.5032019416011307e-05,2.4186759730631283e-06,5.9855355586581436e-05,2.6744274199240035e-06,6.400170643155233e-06,7.90351933573243e-06,4.6406379136846134e-05,6.369751266931372e-06,3.3768526984566884e-05
49.57740009983536,5.390112926963973,-2.9417093611123137,3.0928341320119076e-06,8.343222446580275e-06,6.1514324422125085e-06,1.1621897314129043e-05,1.87860322830922e-05,4.426642860488473e-06,2.408632800893159e-06,2.4830034228479742e-05,1.0507779994681675e-05,4.909554407982395e-06,7.635277660635854e-06,4.0717398939112536e-05,5.649266499162002e-06,2.4689190996918117e-05
49.71564727497753,-0.1516346732329898,2.527914227124061,1.5031796564320746e-06,1.3084723170283402e-05,1.0686939582281825e-05,2.6380406090342093e-06,4.2104554653470446e-05,1.7257946985987965e-06,1.5219248713269604e-05,1.812473945728847e-06,2.3235695418658985e-05,1.9359179797082488e-06,3.717196841844598e-06,1.722380513260465e-05,4.7359342442639295e-06,6.301452892449589e-06
49.78948648751248,-2.9055463114303404,10.440043855018114,2.850125967346412e-06,1.4002905059855344e-05,5.230944515727816e-05,2.2113535643004225e-06,2.655094672696067e-05,1.7434499400622273e-06,4.982003526428485e-05,1.936990148015029e-06,2.507568724422192e-06,1.8973636171919613e-06,9.109811544144894e-06,1.9736278293204747e-05,4.835464122495447e-06,6.834440748163778e-06
49.894590899930336,-3.163150139467412,21.212811684392943,3.507852531642818e-06,3.920146431560307e-06,9.288354326492294e-05,2.284188304530944e-06,1.7978820270449434e-05,1.2522302472631348e-06,6.416700264753184e-05,1.8219166143323389e-06,2.099714508577508e-06,1.7889836797351117e-06,1.10935651688103e-05,2.6414274799796797e-05,5.11779873515791e-06,1.0742484936601318e-05
49.98639520013239,1.3467468635424416,9.938225372706226,1.3605120048934189e-05,1.7439174247753268e-06,7.144204280077365e-05,2.2456625431652618e-06,1.3603228772676945e-05,1.96661782436807e-06,7.193649267207955e-05,1.7764546583623422e-06,1.1225674718357769e-05,1.7982441232442882e-06,6.0489934701598574e-05,8.432032809162247e-06,3.296439985755006e-05,5.814805317717199e-06
50.07432630006224,4.061968343873708,-1.1898836090569946,2.9689972811910508e-05,1.6979981988213104e-06,4.4648349006376164e-05,2.8099066325208307e-06,7.99821634314775e-06,7.333701468267416e-06,4.403510055281843e-05,2.3971709209480442e-06,9.169670141758873e-06,1.8731203454003873e-06,5.632322948746031e-05,1.0006060579106387e-05,3.270640428920966e-05,6.373495108570641e-06
50.20074479992036,9.22515557323466,-6.288277556700911,2.8820978340878723e-05,2.055258674208117e-06,2.029272257697277e-06,1.1016352782245873e-05,1.6696898898400167e-06,3.244670289026655e-05,1.8109341434924412e-06,5.427622413114971e-06,5.404895660112605e-06,2.849853968098526e-05,2.468578215260411e-05,3.7153055237798815e-06,1.781473267849989e-05,4.229036292100733e-06
50.295996431377716,20.43617245746612,-6.983021245907869,1.90913938960964e-05,6.25774486846244e-06,2.0837015195019138e-06,5.408177449648261e-05,1.382868711785037e-06,3.106277710430495e-05,1.5784794165283818e-06,8.180182041691363e-05,4.459490210635217e-06,2.0803694693548093e-05,1.88899006712459e-05,7.803212931909765e-06,1.5552240005076952e-05,5.997104742360639e-06
50.38868210010696,32.707768793010246,-7.791785742983434,4.4917857383712135e-06,7.882559209552742e-06,2.9104565245544565e-06,8.555590479141253e-05,2.087388285128176e-06,2.717737108153159e-05,1.8835034361295556e-06,8.059209192695543e-05,2.8323866621408627e-06,1.9215095079906343e-06,5.768137547287419e-06,8.674815446003777e-06,4.408499870151197e-06,1.074465320496312e-05
50.495400587446056,22.358386017038008,-7.364978404069914,5.093424612668667e-06,6.597821080777052e-06,3.9917870775650354e-06,7.184695271664611e-05,3.0243440424910804e-06,2.1214983236486618e-05,1.584378648257669e-06,0.0001069024439133,4.071884275161272e-06,3.592508781166737e-06,2.9056794931722857e-06,2.9959336030381555e-05,3.376537461538031e-06,2.7592602772732284e-05
50.58361720002722,10.845345532443986,-4.034458795388845,6.687010764418732e-06,7.881251139949799e-06,5.103330165076794e-06,6.649374111089126e-05,2.2578750560637922e-05,1.7078447362958806e-05,2.363685874315247e-06,6.765442190274183e-05,1.075643820487304e-05,4.410392438973669e-06,7.171123887240889e-06,4.496140078139812e-05,2.640293784190974e-06,4.03811967693205e-05
50.713261325028725,1.5309207408854062,-2.302269885685306,1.5480658224982938e-06,7.266603235995277e-06,4.532811519845051e-06,2.3705628007691457e-06,3.0382911895387876e-05,1.514592270828037e-06,3.46349327522304e-06,1.977604525442081e-06,5.0709120142774505e-05,2.567376170346837e-06,5.017213646236243e-06,1.666102577712407e-05,6.559855810955318e-06,1.1712337249816702e-05
50.79417098744307,-0.9077998789097477,8.13981358406487,1.9320222110991203e-06,5.969338614842334e-06,2.234123142238729e-05,2.1053501605491364e-06,2.864911691965743e-05,1.2016118534283274e-06,1.9768795562105327e-05,1.9911246116455093e-06,3.534399058390259e-05,1.5808195654075506e-06,4.111148305415142e-06,1.2702950661177537e-05,3.745457549240294e-06,8.739541123059957e-06
